energy;conductance
-0.1;0.97
-0.0998;0.97
-0.0996;0.97
-0.0994;0.971
-0.0992;0.971
-0.099;0.971
-0.0988;0.972
-0.0986;0.972
-0.0984;0.972
-0.0982;0.972
-0.098;0.973
-0.0978;0.973
-0.0976;0.973
-0.0974;0.974
-0.0972;0.974
-0.097;0.974
-0.0968;0.974
-0.0966;0.975
-0.0964;0.975
-0.0962;0.975
-0.096;0.976
-0.0958;0.976
-0.0956;0.976
-0.0954;0.976
-0.0952;0.977
-0.095;0.977
-0.0948;0.977
-0.0946;0.978
-0.0944;0.978
-0.0942;0.978
-0.094;0.978
-0.0938;0.979
-0.0936;0.979
-0.0934;0.979
-0.0932;0.98
-0.093;0.98
-0.0928;0.98
-0.0926;0.981
-0.0924;0.981
-0.0922;0.981
-0.092;0.981
-0.0918;0.982
-0.0916;0.982
-0.0914;0.982
-0.0912;0.983
-0.091;0.983
-0.0908;0.983
-0.0906;0.983
-0.0904;0.984
-0.0902;0.984
-0.09;0.984
-0.0898;0.985
-0.0896;0.985
-0.0894;0.985
-0.0892;0.986
-0.089;0.986
-0.0888;0.986
-0.0886;0.986
-0.0884;0.987
-0.0882;0.987
-0.088;0.987
-0.0878;0.988
-0.0876;0.988
-0.0874;0.988
-0.0872;0.988
-0.087;0.989
-0.0868;0.989
-0.0866;0.989
-0.0864;0.99
-0.0862;0.99
-0.086;0.99
-0.0858;0.99
-0.0856;0.991
-0.0854;0.991
-0.0852;0.991
-0.085;0.992
-0.0848;0.992
-0.0846;0.992
-0.0844;0.992
-0.0842;0.993
-0.084;0.993
-0.0838;0.993
-0.0836;0.994
-0.0834;0.994
-0.0832;0.994
-0.083;0.994
-0.0828;0.995
-0.0826;0.995
-0.0824;0.995
-0.0822;0.995
-0.082;0.996
-0.0818;0.996
-0.0816;0.996
-0.0814;0.996
-0.0812;0.997
-0.081;0.997
-0.0808;0.997
-0.0806;0.997
-0.0804;0.997
-0.0802;0.998
-0.08;0.998
-0.0798;0.998
-0.0796;0.998
-0.0794;0.998
-0.0792;0.999
-0.079;0.999
-0.0788;0.999
-0.0786;0.999
-0.0784;0.999
-0.0782;0.999
-0.078;0.999
-0.0778;1.0
-0.0776;1.0
-0.0774;1.0
-0.0772;1.0
-0.077;1.0
-0.0768;1.0
-0.0766;1.0
-0.0764;1.0
-0.0762;1.0
-0.076;1.0
-0.0758;1.0
-0.0756;1.0
-0.0754;1.0
-0.0752;1.0
-0.075;1.0
-0.0748;0.999
-0.0746;0.999
-0.0744;0.999
-0.0742;0.999
-0.074;0.999
-0.0738;0.998
-0.0736;0.998
-0.0734;0.998
-0.0732;0.997
-0.073;0.997
-0.0728;0.996
-0.0726;0.996
-0.0724;0.995
-0.0722;0.995
-0.072;0.994
-0.0718;0.993
-0.0716;0.993
-0.0714;0.992
-0.0712;0.991
-0.071;0.99
-0.0708;0.989
-0.0706;0.988
-0.0704;0.987
-0.0702;0.985
-0.07;0.984
-0.0698;0.983
-0.0696;0.981
-0.0694;0.979
-0.0692;0.978
-0.069;0.976
-0.0688;0.974
-0.0686;0.972
-0.0684;0.969
-0.0682;0.967
-0.068;0.964
-0.0678;0.961
-0.0676;0.959
-0.0674;0.955
-0.0672;0.952
-0.067;0.948
-0.0668;0.945
-0.0666;0.941
-0.0664;0.936
-0.0662;0.932
-0.066;0.927
-0.0658;0.922
-0.0656;0.916
-0.0654;0.91
-0.0652;0.904
-0.065;0.898
-0.0648;0.891
-0.0646;0.883
-0.0644;0.875
-0.0642;0.867
-0.064;0.858
-0.0638;0.848
-0.0636;0.838
-0.0634;0.827
-0.0632;0.816
-0.063;0.804
-0.0628;0.791
-0.0626;0.778
-0.0624;0.764
-0.0622;0.749
-0.062;0.733
-0.0618;0.716
-0.0616;0.698
-0.0614;0.68
-0.0612;0.66
-0.061;0.64
-0.0608;0.619
-0.0606;0.596
-0.0604;0.573
-0.0602;0.549
-0.06;0.524
-0.0598;0.498
-0.0596;0.472
-0.0594;0.445
-0.0592;0.417
-0.059;0.389
-0.0588;0.361
-0.0586;0.332
-0.0584;0.304
-0.0582;0.275
-0.058;0.248
-0.0578;0.22
-0.0576;0.194
-0.0574;0.168
-0.0572;0.144
-0.057;0.122
-0.0568;0.1
-0.0566;0.081
-0.0564;0.064
-0.0562;0.048
-0.056;0.035
-0.0558;0.024
-0.0556;0.015
-0.0554;0.008
-0.0552;0.003
-0.055;0.001
-0.0548;0.0
-0.0546;0.001
-0.0544;0.005
-0.0542;0.009
-0.054;0.016
-0.0538;0.024
-0.0536;0.033
-0.0534;0.043
-0.0532;0.054
-0.053;0.066
-0.0528;0.078
-0.0526;0.092
-0.0524;0.105
-0.0522;0.119
-0.052;0.133
-0.0518;0.148
-0.0516;0.163
-0.0514;0.177
-0.0512;0.192
-0.051;0.206
-0.0508;0.221
-0.0506;0.235
-0.0504;0.249
-0.0502;0.263
-0.05;0.277
-0.0498;0.29
-0.0496;0.303
-0.0494;0.316
-0.0492;0.329
-0.049;0.341
-0.0488;0.353
-0.0486;0.365
-0.0484;0.376
-0.0482;0.387
-0.048;0.398
-0.0478;0.409
-0.0476;0.419
-0.0474;0.429
-0.0472;0.439
-0.047;0.448
-0.0468;0.457
-0.0466;0.466
-0.0464;0.475
-0.0462;0.483
-0.046;0.492
-0.0458;0.5
-0.0456;0.507
-0.0454;0.515
-0.0452;0.522
-0.045;0.529
-0.0448;0.536
-0.0446;0.543
-0.0444;0.549
-0.0442;0.556
-0.044;0.562
-0.0438;0.568
-0.0436;0.574
-0.0434;0.58
-0.0432;0.585
-0.043;0.591
-0.0428;0.596
-0.0426;0.601
-0.0424;0.606
-0.0422;0.611
-0.042;0.615
-0.0418;0.62
-0.0416;0.625
-0.0414;0.629
-0.0412;0.633
-0.041;0.637
-0.0408;0.641
-0.0406;0.645
-0.0404;0.649
-0.0402;0.653
-0.04;0.657
-0.0398;0.66
-0.0396;0.664
-0.0394;0.667
-0.0392;0.671
-0.039;0.674
-0.0388;0.677
-0.0386;0.68
-0.0384;0.683
-0.0382;0.686
-0.038;0.689
-0.0378;0.692
-0.0376;0.695
-0.0374;0.698
-0.0372;0.7
-0.037;0.703
-0.0368;0.706
-0.0366;0.708
-0.0364;0.711
-0.0362;0.713
-0.036;0.716
-0.0358;0.718
-0.0356;0.72
-0.0354;0.722
-0.0352;0.725
-0.035;0.727
-0.0348;0.729
-0.0346;0.731
-0.0344;0.733
-0.0342;0.735
-0.034;0.737
-0.0338;0.739
-0.0336;0.741
-0.0334;0.743
-0.0332;0.745
-0.033;0.746
-0.0328;0.748
-0.0326;0.75
-0.0324;0.752
-0.0322;0.753
-0.032;0.755
-0.0318;0.757
-0.0316;0.758
-0.0314;0.76
-0.0312;0.761
-0.031;0.763
-0.0308;0.764
-0.0306;0.766
-0.0304;0.767
-0.0302;0.769
-0.03;0.77
-0.0298;0.772
-0.0296;0.773
-0.0294;0.774
-0.0292;0.776
-0.029;0.777
-0.0288;0.778
-0.0286;0.78
-0.0284;0.781
-0.0282;0.782
-0.028;0.783
-0.0278;0.785
-0.0276;0.786
-0.0274;0.787
-0.0272;0.788
-0.027;0.789
-0.0268;0.791
-0.0266;0.792
-0.0264;0.793
-0.0262;0.794
-0.026;0.795
-0.0258;0.796
-0.0256;0.797
-0.0254;0.799
-0.0252;0.8
-0.025;0.801
-0.0248;0.802
-0.0246;0.803
-0.0244;0.804
-0.0242;0.805
-0.024;0.806
-0.0238;0.807
-0.0236;0.808
-0.0234;0.809
-0.0232;0.81
-0.023;0.811
-0.0228;0.812
-0.0226;0.813
-0.0224;0.815
-0.0222;0.816
-0.022;0.817
-0.0218;0.818
-0.0216;0.819
-0.0214;0.82
-0.0212;0.821
-0.021;0.822
-0.0208;0.823
-0.0206;0.824
-0.0204;0.825
-0.0202;0.826
-0.02;0.827
-0.0198;0.828
-0.0196;0.83
-0.0194;0.831
-0.0192;0.832
-0.019;0.833
-0.0188;0.834
-0.0186;0.835
-0.0184;0.837
-0.0182;0.838
-0.018;0.839
-0.0178;0.84
-0.0176;0.842
-0.0174;0.843
-0.0172;0.844
-0.017;0.846
-0.0168;0.847
-0.0166;0.849
-0.0164;0.85
-0.0162;0.852
-0.016;0.853
-0.0158;0.855
-0.0156;0.857
-0.0154;0.859
-0.0152;0.86
-0.015;0.862
-0.0148;0.864
-0.0146;0.867
-0.0144;0.869
-0.0142;0.871
-0.014;0.873
-0.0138;0.876
-0.0136;0.879
-0.0134;0.881
-0.0132;0.884
-0.013;0.887
-0.0128;0.891
-0.0126;0.894
-0.0124;0.898
-0.0122;0.902
-0.012;0.906
-0.0118;0.911
-0.0116;0.915
-0.0114;0.921
-0.0112;0.926
-0.011;0.932
-0.0108;0.939
-0.0106;0.946
-0.0104;0.953
-0.0102;0.961
-0.01;0.969
-0.0098;0.977
-0.0096;0.986
-0.0094;0.993
-0.0092;0.998
-0.009;1.0
-0.0088;0.993
-0.0086;0.969
-0.0084;0.917
-0.0082;0.814
-0.008;0.638
-0.0078;0.395
-0.0076;0.158
-0.0074;0.022
-0.0072;0.006
-0.007;0.06
-0.0068;0.138
-0.0066;0.215
-0.0064;0.283
-0.0062;0.339
-0.006;0.387
-0.0058;0.426
-0.0056;0.459
-0.0054;0.486
-0.0052;0.51
-0.005;0.53
-0.0048;0.547
-0.0046;0.562
-0.0044;0.575
-0.0042;0.587
-0.004;0.597
-0.0038;0.607
-0.0036;0.615
-0.0034;0.622
-0.0032;0.629
-0.003;0.635
-0.0028;0.641
-0.0026;0.647
-0.0024;0.652
-0.0022;0.657
-0.002;0.663
-0.0018;0.669
-0.0016;0.677
-0.0014;0.687
-0.0012;0.703
-0.001;0.733
-0.0008;0.81
-0.0006;0.883
-0.0004;0.341
-0.0002;0.474
0.0;0.35
0.0002;0.474
0.0004;0.341
0.0006;0.883
0.0008;0.81
0.001;0.733
0.0012;0.703
0.0014;0.687
0.0016;0.677
0.0018;0.669
0.002;0.663
0.0022;0.657
0.0024;0.652
0.0026;0.647
0.0028;0.641
0.003;0.635
0.0032;0.629
0.0034;0.622
0.0036;0.615
0.0038;0.607
0.004;0.597
0.0042;0.587
0.0044;0.575
0.0046;0.562
0.0048;0.547
0.005;0.53
0.0052;0.51
0.0054;0.486
0.0056;0.459
0.0058;0.426
0.006;0.387
0.0062;0.339
0.0064;0.283
0.0066;0.215
0.0068;0.138
0.007;0.06
0.0072;0.006
0.0074;0.022
0.0076;0.158
0.0078;0.395
0.008;0.638
0.0082;0.814
0.0084;0.917
0.0086;0.969
0.0088;0.993
0.009;1.0
0.0092;0.998
0.0094;0.993
0.0096;0.986
0.0098;0.977
0.01;0.969
0.0102;0.961
0.0104;0.953
0.0106;0.946
0.0108;0.939
0.011;0.932
0.0112;0.926
0.0114;0.921
0.0116;0.915
0.0118;0.911
0.012;0.906
0.0122;0.902
0.0124;0.898
0.0126;0.894
0.0128;0.891
0.013;0.887
0.0132;0.884
0.0134;0.881
0.0136;0.879
0.0138;0.876
0.014;0.873
0.0142;0.871
0.0144;0.869
0.0146;0.867
0.0148;0.864
0.015;0.862
0.0152;0.86
0.0154;0.859
0.0156;0.857
0.0158;0.855
0.016;0.853
0.0162;0.852
0.0164;0.85
0.0166;0.849
0.0168;0.847
0.017;0.846
0.0172;0.844
0.0174;0.843
0.0176;0.842
0.0178;0.84
0.018;0.839
0.0182;0.838
0.0184;0.837
0.0186;0.835
0.0188;0.834
0.019;0.833
0.0192;0.832
0.0194;0.831
0.0196;0.83
0.0198;0.828
0.02;0.827
0.0202;0.826
0.0204;0.825
0.0206;0.824
0.0208;0.823
0.021;0.822
0.0212;0.821
0.0214;0.82
0.0216;0.819
0.0218;0.818
0.022;0.817
0.0222;0.816
0.0224;0.815
0.0226;0.813
0.0228;0.812
0.023;0.811
0.0232;0.81
0.0234;0.809
0.0236;0.808
0.0238;0.807
0.024;0.806
0.0242;0.805
0.0244;0.804
0.0246;0.803
0.0248;0.802
0.025;0.801
0.0252;0.8
0.0254;0.799
0.0256;0.797
0.0258;0.796
0.026;0.795
0.0262;0.794
0.0264;0.793
0.0266;0.792
0.0268;0.791
0.027;0.789
0.0272;0.788
0.0274;0.787
0.0276;0.786
0.0278;0.785
0.028;0.783
0.0282;0.782
0.0284;0.781
0.0286;0.78
0.0288;0.778
0.029;0.777
0.0292;0.776
0.0294;0.774
0.0296;0.773
0.0298;0.772
0.03;0.77
0.0302;0.769
0.0304;0.767
0.0306;0.766
0.0308;0.764
0.031;0.763
0.0312;0.761
0.0314;0.76
0.0316;0.758
0.0318;0.757
0.032;0.755
0.0322;0.753
0.0324;0.752
0.0326;0.75
0.0328;0.748
0.033;0.746
0.0332;0.745
0.0334;0.743
0.0336;0.741
0.0338;0.739
0.034;0.737
0.0342;0.735
0.0344;0.733
0.0346;0.731
0.0348;0.729
0.035;0.727
0.0352;0.725
0.0354;0.722
0.0356;0.72
0.0358;0.718
0.036;0.716
0.0362;0.713
0.0364;0.711
0.0366;0.708
0.0368;0.706
0.037;0.703
0.0372;0.7
0.0374;0.698
0.0376;0.695
0.0378;0.692
0.038;0.689
0.0382;0.686
0.0384;0.683
0.0386;0.68
0.0388;0.677
0.039;0.674
0.0392;0.671
0.0394;0.667
0.0396;0.664
0.0398;0.66
0.04;0.657
0.0402;0.653
0.0404;0.649
0.0406;0.645
0.0408;0.641
0.041;0.637
0.0412;0.633
0.0414;0.629
0.0416;0.625
0.0418;0.62
0.042;0.615
0.0422;0.611
0.0424;0.606
0.0426;0.601
0.0428;0.596
0.043;0.591
0.0432;0.585
0.0434;0.58
0.0436;0.574
0.0438;0.568
0.044;0.562
0.0442;0.556
0.0444;0.549
0.0446;0.543
0.0448;0.536
0.045;0.529
0.0452;0.522
0.0454;0.515
0.0456;0.507
0.0458;0.5
0.046;0.492
0.0462;0.483
0.0464;0.475
0.0466;0.466
0.0468;0.457
0.047;0.448
0.0472;0.439
0.0474;0.429
0.0476;0.419
0.0478;0.409
0.048;0.398
0.0482;0.387
0.0484;0.376
0.0486;0.365
0.0488;0.353
0.049;0.341
0.0492;0.329
0.0494;0.316
0.0496;0.303
0.0498;0.29
0.05;0.277
0.0502;0.263
0.0504;0.249
0.0506;0.235
0.0508;0.221
0.051;0.206
0.0512;0.192
0.0514;0.177
0.0516;0.163
0.0518;0.148
0.052;0.133
0.0522;0.119
0.0524;0.105
0.0526;0.092
0.0528;0.078
0.053;0.066
0.0532;0.054
0.0534;0.043
0.0536;0.033
0.0538;0.024
0.054;0.016
0.0542;0.009
0.0544;0.005
0.0546;0.001
0.0548;0.0
0.055;0.001
0.0552;0.003
0.0554;0.008
0.0556;0.015
0.0558;0.024
0.056;0.035
0.0562;0.048
0.0564;0.064
0.0566;0.081
0.0568;0.1
0.057;0.122
0.0572;0.144
0.0574;0.168
0.0576;0.194
0.0578;0.22
0.058;0.248
0.0582;0.275
0.0584;0.304
0.0586;0.332
0.0588;0.361
0.059;0.389
0.0592;0.417
0.0594;0.445
0.0596;0.472
0.0598;0.498
0.06;0.524
0.0602;0.549
0.0604;0.573
0.0606;0.596
0.0608;0.619
0.061;0.64
0.0612;0.66
0.0614;0.68
0.0616;0.698
0.0618;0.716
0.062;0.733
0.0622;0.749
0.0624;0.764
0.0626;0.778
0.0628;0.791
0.063;0.804
0.0632;0.816
0.0634;0.827
0.0636;0.838
0.0638;0.848
0.064;0.858
0.0642;0.867
0.0644;0.875
0.0646;0.883
0.0648;0.891
0.065;0.898
0.0652;0.904
0.0654;0.91
0.0656;0.916
0.0658;0.922
0.066;0.927
0.0662;0.932
0.0664;0.936
0.0666;0.941
0.0668;0.945
0.067;0.948
0.0672;0.952
0.0674;0.955
0.0676;0.959
0.0678;0.961
0.068;0.964
0.0682;0.967
0.0684;0.969
0.0686;0.972
0.0688;0.974
0.069;0.976
0.0692;0.978
0.0694;0.979
0.0696;0.981
0.0698;0.983
0.07;0.984
0.0702;0.985
0.0704;0.987
0.0706;0.988
0.0708;0.989
0.071;0.99
0.0712;0.991
0.0714;0.992
0.0716;0.993
0.0718;0.993
0.072;0.994
0.0722;0.995
0.0724;0.995
0.0726;0.996
0.0728;0.996
0.073;0.997
0.0732;0.997
0.0734;0.998
0.0736;0.998
0.0738;0.998
0.074;0.999
0.0742;0.999
0.0744;0.999
0.0746;0.999
0.0748;0.999
0.075;1.0
0.0752;1.0
0.0754;1.0
0.0756;1.0
0.0758;1.0
0.076;1.0
0.0762;1.0
0.0764;1.0
0.0766;1.0
0.0768;1.0
0.077;1.0
0.0772;1.0
0.0774;1.0
0.0776;1.0
0.0778;1.0
0.078;0.999
0.0782;0.999
0.0784;0.999
0.0786;0.999
0.0788;0.999
0.079;0.999
0.0792;0.999
0.0794;0.998
0.0796;0.998
0.0798;0.998
0.08;0.998
0.0802;0.998
0.0804;0.997
0.0806;0.997
0.0808;0.997
0.081;0.997
0.0812;0.997
0.0814;0.996
0.0816;0.996
0.0818;0.996
0.082;0.996
0.0822;0.995
0.0824;0.995
0.0826;0.995
0.0828;0.995
0.083;0.994
0.0832;0.994
0.0834;0.994
0.0836;0.994
0.0838;0.993
0.084;0.993
0.0842;0.993
0.0844;0.992
0.0846;0.992
0.0848;0.992
0.085;0.992
0.0852;0.991
0.0854;0.991
0.0856;0.991
0.0858;0.99
0.086;0.99
0.0862;0.99
0.0864;0.99
0.0866;0.989
0.0868;0.989
0.087;0.989
0.0872;0.988
0.0874;0.988
0.0876;0.988
0.0878;0.988
0.088;0.987
0.0882;0.987
0.0884;0.987
0.0886;0.986
0.0888;0.986
0.089;0.986
0.0892;0.986
0.0894;0.985
0.0896;0.985
0.0898;0.985
0.09;0.984
0.0902;0.984
0.0904;0.984
0.0906;0.983
0.0908;0.983
0.091;0.983
0.0912;0.983
0.0914;0.982
0.0916;0.982
0.0918;0.982
0.092;0.981
0.0922;0.981
0.0924;0.981
0.0926;0.981
0.0928;0.98
0.093;0.98
0.0932;0.98
0.0934;0.979
0.0936;0.979
0.0938;0.979
0.094;0.978
0.0942;0.978
0.0944;0.978
0.0946;0.978
0.0948;0.977
0.095;0.977
0.0952;0.977
0.0954;0.976
0.0956;0.976
0.0958;0.976
0.096;0.976
0.0962;0.975
0.0964;0.975
0.0966;0.975
0.0968;0.974
0.097;0.974
0.0972;0.974
0.0974;0.974
0.0976;0.973
0.0978;0.973
0.098;0.973
0.0982;0.972
0.0984;0.972
0.0986;0.972
0.0988;0.972
0.099;0.971
0.0992;0.971
0.0994;0.971
0.0996;0.97
0.0998;0.97
0.1;0.97
