energy;conductance
-0.1;0.832
-0.0998;0.833
-0.0996;0.834
-0.0994;0.834
-0.0992;0.835
-0.099;0.836
-0.0988;0.836
-0.0986;0.837
-0.0984;0.838
-0.0982;0.838
-0.098;0.839
-0.0978;0.84
-0.0976;0.84
-0.0974;0.841
-0.0972;0.842
-0.097;0.842
-0.0968;0.843
-0.0966;0.844
-0.0964;0.845
-0.0962;0.845
-0.096;0.846
-0.0958;0.847
-0.0956;0.847
-0.0954;0.848
-0.0952;0.849
-0.095;0.849
-0.0948;0.85
-0.0946;0.851
-0.0944;0.851
-0.0942;0.852
-0.094;0.853
-0.0938;0.854
-0.0936;0.854
-0.0934;0.855
-0.0932;0.856
-0.093;0.856
-0.0928;0.857
-0.0926;0.858
-0.0924;0.859
-0.0922;0.859
-0.092;0.86
-0.0918;0.861
-0.0916;0.861
-0.0914;0.862
-0.0912;0.863
-0.091;0.864
-0.0908;0.864
-0.0906;0.865
-0.0904;0.866
-0.0902;0.867
-0.09;0.867
-0.0898;0.868
-0.0896;0.869
-0.0894;0.87
-0.0892;0.87
-0.089;0.871
-0.0888;0.872
-0.0886;0.873
-0.0884;0.873
-0.0882;0.874
-0.088;0.875
-0.0878;0.876
-0.0876;0.877
-0.0874;0.877
-0.0872;0.878
-0.087;0.879
-0.0868;0.88
-0.0866;0.881
-0.0864;0.881
-0.0862;0.882
-0.086;0.883
-0.0858;0.884
-0.0856;0.885
-0.0854;0.885
-0.0852;0.886
-0.085;0.887
-0.0848;0.888
-0.0846;0.889
-0.0844;0.889
-0.0842;0.89
-0.084;0.891
-0.0838;0.892
-0.0836;0.893
-0.0834;0.894
-0.0832;0.894
-0.083;0.895
-0.0828;0.896
-0.0826;0.897
-0.0824;0.898
-0.0822;0.899
-0.082;0.9
-0.0818;0.901
-0.0816;0.901
-0.0814;0.902
-0.0812;0.903
-0.081;0.904
-0.0808;0.905
-0.0806;0.906
-0.0804;0.907
-0.0802;0.908
-0.08;0.909
-0.0798;0.909
-0.0796;0.91
-0.0794;0.911
-0.0792;0.912
-0.079;0.913
-0.0788;0.914
-0.0786;0.915
-0.0784;0.916
-0.0782;0.917
-0.078;0.918
-0.0778;0.919
-0.0776;0.92
-0.0774;0.921
-0.0772;0.922
-0.077;0.923
-0.0768;0.924
-0.0766;0.924
-0.0764;0.925
-0.0762;0.926
-0.076;0.927
-0.0758;0.928
-0.0756;0.929
-0.0754;0.93
-0.0752;0.931
-0.075;0.932
-0.0748;0.933
-0.0746;0.934
-0.0744;0.935
-0.0742;0.936
-0.074;0.937
-0.0738;0.938
-0.0736;0.939
-0.0734;0.94
-0.0732;0.941
-0.073;0.942
-0.0728;0.944
-0.0726;0.945
-0.0724;0.946
-0.0722;0.947
-0.072;0.948
-0.0718;0.949
-0.0716;0.95
-0.0714;0.951
-0.0712;0.952
-0.071;0.953
-0.0708;0.954
-0.0706;0.955
-0.0704;0.956
-0.0702;0.957
-0.07;0.958
-0.0698;0.959
-0.0696;0.96
-0.0694;0.961
-0.0692;0.962
-0.069;0.963
-0.0688;0.964
-0.0686;0.966
-0.0684;0.967
-0.0682;0.968
-0.068;0.969
-0.0678;0.97
-0.0676;0.971
-0.0674;0.972
-0.0672;0.973
-0.067;0.974
-0.0668;0.975
-0.0666;0.976
-0.0664;0.977
-0.0662;0.978
-0.066;0.979
-0.0658;0.98
-0.0656;0.981
-0.0654;0.982
-0.0652;0.983
-0.065;0.984
-0.0648;0.985
-0.0646;0.985
-0.0644;0.986
-0.0642;0.987
-0.064;0.988
-0.0638;0.989
-0.0636;0.99
-0.0634;0.991
-0.0632;0.991
-0.063;0.992
-0.0628;0.993
-0.0626;0.994
-0.0624;0.994
-0.0622;0.995
-0.062;0.996
-0.0618;0.996
-0.0616;0.997
-0.0614;0.997
-0.0612;0.998
-0.061;0.998
-0.0608;0.999
-0.0606;0.999
-0.0604;0.999
-0.0602;1.0
-0.06;1.0
-0.0598;1.0
-0.0596;1.0
-0.0594;1.0
-0.0592;1.0
-0.059;1.0
-0.0588;1.0
-0.0586;0.999
-0.0584;0.999
-0.0582;0.999
-0.058;0.998
-0.0578;0.998
-0.0576;0.997
-0.0574;0.996
-0.0572;0.995
-0.057;0.994
-0.0568;0.993
-0.0566;0.992
-0.0564;0.99
-0.0562;0.989
-0.056;0.987
-0.0558;0.985
-0.0556;0.983
-0.0554;0.981
-0.0552;0.979
-0.055;0.976
-0.0548;0.973
-0.0546;0.97
-0.0544;0.967
-0.0542;0.964
-0.054;0.96
-0.0538;0.957
-0.0536;0.953
-0.0534;0.948
-0.0532;0.944
-0.053;0.939
-0.0528;0.934
-0.0526;0.928
-0.0524;0.923
-0.0522;0.917
-0.052;0.91
-0.0518;0.904
-0.0516;0.897
-0.0514;0.889
-0.0512;0.882
-0.051;0.873
-0.0508;0.865
-0.0506;0.856
-0.0504;0.847
-0.0502;0.837
-0.05;0.827
-0.0498;0.817
-0.0496;0.806
-0.0494;0.794
-0.0492;0.782
-0.049;0.77
-0.0488;0.758
-0.0486;0.745
-0.0484;0.731
-0.0482;0.717
-0.048;0.703
-0.0478;0.688
-0.0476;0.673
-0.0474;0.657
-0.0472;0.641
-0.047;0.625
-0.0468;0.609
-0.0466;0.592
-0.0464;0.575
-0.0462;0.557
-0.046;0.539
-0.0458;0.522
-0.0456;0.503
-0.0454;0.485
-0.0452;0.467
-0.045;0.449
-0.0448;0.43
-0.0446;0.412
-0.0444;0.393
-0.0442;0.375
-0.044;0.357
-0.0438;0.339
-0.0436;0.321
-0.0434;0.304
-0.0432;0.287
-0.043;0.27
-0.0428;0.253
-0.0426;0.237
-0.0424;0.221
-0.0422;0.206
-0.042;0.191
-0.0418;0.177
-0.0416;0.163
-0.0414;0.15
-0.0412;0.137
-0.041;0.125
-0.0408;0.114
-0.0406;0.103
-0.0404;0.092
-0.0402;0.083
-0.04;0.073
-0.0398;0.065
-0.0396;0.057
-0.0394;0.049
-0.0392;0.043
-0.039;0.036
-0.0388;0.031
-0.0386;0.026
-0.0384;0.021
-0.0382;0.017
-0.038;0.013
-0.0378;0.01
-0.0376;0.007
-0.0374;0.005
-0.0372;0.003
-0.037;0.002
-0.0368;0.001
-0.0366;0.0
-0.0364;0.0
-0.0362;0.0
-0.036;0.0
-0.0358;0.001
-0.0356;0.002
-0.0354;0.003
-0.0352;0.005
-0.035;0.006
-0.0348;0.008
-0.0346;0.011
-0.0344;0.013
-0.0342;0.015
-0.034;0.018
-0.0338;0.021
-0.0336;0.024
-0.0334;0.027
-0.0332;0.03
-0.033;0.033
-0.0328;0.037
-0.0326;0.04
-0.0324;0.044
-0.0322;0.047
-0.032;0.051
-0.0318;0.055
-0.0316;0.059
-0.0314;0.063
-0.0312;0.066
-0.031;0.07
-0.0308;0.074
-0.0306;0.078
-0.0304;0.082
-0.0302;0.086
-0.03;0.09
-0.0298;0.094
-0.0296;0.098
-0.0294;0.102
-0.0292;0.106
-0.029;0.11
-0.0288;0.114
-0.0286;0.118
-0.0284;0.122
-0.0282;0.126
-0.028;0.13
-0.0278;0.133
-0.0276;0.137
-0.0274;0.141
-0.0272;0.145
-0.027;0.148
-0.0268;0.152
-0.0266;0.156
-0.0264;0.159
-0.0262;0.163
-0.026;0.167
-0.0258;0.17
-0.0256;0.174
-0.0254;0.177
-0.0252;0.181
-0.025;0.184
-0.0248;0.187
-0.0246;0.191
-0.0244;0.194
-0.0242;0.197
-0.024;0.2
-0.0238;0.203
-0.0236;0.207
-0.0234;0.21
-0.0232;0.213
-0.023;0.216
-0.0228;0.219
-0.0226;0.222
-0.0224;0.225
-0.0222;0.228
-0.022;0.23
-0.0218;0.233
-0.0216;0.236
-0.0214;0.239
-0.0212;0.241
-0.021;0.244
-0.0208;0.247
-0.0206;0.249
-0.0204;0.252
-0.0202;0.254
-0.02;0.257
-0.0198;0.259
-0.0196;0.262
-0.0194;0.264
-0.0192;0.267
-0.019;0.269
-0.0188;0.271
-0.0186;0.274
-0.0184;0.276
-0.0182;0.278
-0.018;0.28
-0.0178;0.282
-0.0176;0.285
-0.0174;0.287
-0.0172;0.289
-0.017;0.291
-0.0168;0.293
-0.0166;0.295
-0.0164;0.297
-0.0162;0.299
-0.016;0.301
-0.0158;0.303
-0.0156;0.305
-0.0154;0.307
-0.0152;0.309
-0.015;0.311
-0.0148;0.312
-0.0146;0.314
-0.0144;0.316
-0.0142;0.318
-0.014;0.32
-0.0138;0.321
-0.0136;0.323
-0.0134;0.325
-0.0132;0.327
-0.013;0.329
-0.0128;0.33
-0.0126;0.332
-0.0124;0.334
-0.0122;0.336
-0.012;0.337
-0.0118;0.339
-0.0116;0.341
-0.0114;0.343
-0.0112;0.344
-0.011;0.346
-0.0108;0.348
-0.0106;0.35
-0.0104;0.352
-0.0102;0.354
-0.01;0.356
-0.0098;0.358
-0.0096;0.36
-0.0094;0.362
-0.0092;0.364
-0.009;0.366
-0.0088;0.369
-0.0086;0.371
-0.0084;0.374
-0.0082;0.377
-0.008;0.38
-0.0078;0.383
-0.0076;0.386
-0.0074;0.389
-0.0072;0.393
-0.007;0.397
-0.0068;0.402
-0.0066;0.406
-0.0064;0.412
-0.0062;0.418
-0.006;0.424
-0.0058;0.432
-0.0056;0.44
-0.0054;0.45
-0.0052;0.462
-0.005;0.475
-0.0048;0.492
-0.0046;0.511
-0.0044;0.535
-0.0042;0.566
-0.004;0.605
-0.0038;0.657
-0.0036;0.726
-0.0034;0.818
-0.0032;0.93
-0.003;1.0
-0.0028;0.828
-0.0026;0.39
-0.0024;0.097
-0.0022;0.009
-0.002;0.002
-0.0018;0.019
-0.0016;0.039
-0.0014;0.058
-0.0012;0.074
-0.001;0.087
-0.0008;0.097
-0.0006;0.105
-0.0004;0.113
-0.0002;0.133
0.0;0.006
0.0002;0.133
0.0004;0.113
0.0006;0.105
0.0008;0.097
0.001;0.087
0.0012;0.074
0.0014;0.058
0.0016;0.039
0.0018;0.019
0.002;0.002
0.0022;0.009
0.0024;0.097
0.0026;0.39
0.0028;0.828
0.003;1.0
0.0032;0.93
0.0034;0.818
0.0036;0.726
0.0038;0.657
0.004;0.605
0.0042;0.566
0.0044;0.535
0.0046;0.511
0.0048;0.492
0.005;0.475
0.0052;0.462
0.0054;0.45
0.0056;0.44
0.0058;0.432
0.006;0.424
0.0062;0.418
0.0064;0.412
0.0066;0.406
0.0068;0.402
0.007;0.397
0.0072;0.393
0.0074;0.389
0.0076;0.386
0.0078;0.383
0.008;0.38
0.0082;0.377
0.0084;0.374
0.0086;0.371
0.0088;0.369
0.009;0.366
0.0092;0.364
0.0094;0.362
0.0096;0.36
0.0098;0.358
0.01;0.356
0.0102;0.354
0.0104;0.352
0.0106;0.35
0.0108;0.348
0.011;0.346
0.0112;0.344
0.0114;0.343
0.0116;0.341
0.0118;0.339
0.012;0.337
0.0122;0.336
0.0124;0.334
0.0126;0.332
0.0128;0.33
0.013;0.329
0.0132;0.327
0.0134;0.325
0.0136;0.323
0.0138;0.321
0.014;0.32
0.0142;0.318
0.0144;0.316
0.0146;0.314
0.0148;0.312
0.015;0.311
0.0152;0.309
0.0154;0.307
0.0156;0.305
0.0158;0.303
0.016;0.301
0.0162;0.299
0.0164;0.297
0.0166;0.295
0.0168;0.293
0.017;0.291
0.0172;0.289
0.0174;0.287
0.0176;0.285
0.0178;0.282
0.018;0.28
0.0182;0.278
0.0184;0.276
0.0186;0.274
0.0188;0.271
0.019;0.269
0.0192;0.267
0.0194;0.264
0.0196;0.262
0.0198;0.259
0.02;0.257
0.0202;0.254
0.0204;0.252
0.0206;0.249
0.0208;0.247
0.021;0.244
0.0212;0.241
0.0214;0.239
0.0216;0.236
0.0218;0.233
0.022;0.23
0.0222;0.228
0.0224;0.225
0.0226;0.222
0.0228;0.219
0.023;0.216
0.0232;0.213
0.0234;0.21
0.0236;0.207
0.0238;0.203
0.024;0.2
0.0242;0.197
0.0244;0.194
0.0246;0.191
0.0248;0.187
0.025;0.184
0.0252;0.181
0.0254;0.177
0.0256;0.174
0.0258;0.17
0.026;0.167
0.0262;0.163
0.0264;0.159
0.0266;0.156
0.0268;0.152
0.027;0.148
0.0272;0.145
0.0274;0.141
0.0276;0.137
0.0278;0.133
0.028;0.13
0.0282;0.126
0.0284;0.122
0.0286;0.118
0.0288;0.114
0.029;0.11
0.0292;0.106
0.0294;0.102
0.0296;0.098
0.0298;0.094
0.03;0.09
0.0302;0.086
0.0304;0.082
0.0306;0.078
0.0308;0.074
0.031;0.07
0.0312;0.066
0.0314;0.063
0.0316;0.059
0.0318;0.055
0.032;0.051
0.0322;0.047
0.0324;0.044
0.0326;0.04
0.0328;0.037
0.033;0.033
0.0332;0.03
0.0334;0.027
0.0336;0.024
0.0338;0.021
0.034;0.018
0.0342;0.015
0.0344;0.013
0.0346;0.011
0.0348;0.008
0.035;0.006
0.0352;0.005
0.0354;0.003
0.0356;0.002
0.0358;0.001
0.036;0.0
0.0362;0.0
0.0364;0.0
0.0366;0.0
0.0368;0.001
0.037;0.002
0.0372;0.003
0.0374;0.005
0.0376;0.007
0.0378;0.01
0.038;0.013
0.0382;0.017
0.0384;0.021
0.0386;0.026
0.0388;0.031
0.039;0.036
0.0392;0.043
0.0394;0.049
0.0396;0.057
0.0398;0.065
0.04;0.073
0.0402;0.083
0.0404;0.092
0.0406;0.103
0.0408;0.114
0.041;0.125
0.0412;0.137
0.0414;0.15
0.0416;0.163
0.0418;0.177
0.042;0.191
0.0422;0.206
0.0424;0.221
0.0426;0.237
0.0428;0.253
0.043;0.27
0.0432;0.287
0.0434;0.304
0.0436;0.321
0.0438;0.339
0.044;0.357
0.0442;0.375
0.0444;0.393
0.0446;0.412
0.0448;0.43
0.045;0.449
0.0452;0.467
0.0454;0.485
0.0456;0.503
0.0458;0.522
0.046;0.539
0.0462;0.557
0.0464;0.575
0.0466;0.592
0.0468;0.609
0.047;0.625
0.0472;0.641
0.0474;0.657
0.0476;0.673
0.0478;0.688
0.048;0.703
0.0482;0.717
0.0484;0.731
0.0486;0.745
0.0488;0.758
0.049;0.77
0.0492;0.782
0.0494;0.794
0.0496;0.806
0.0498;0.817
0.05;0.827
0.0502;0.837
0.0504;0.847
0.0506;0.856
0.0508;0.865
0.051;0.873
0.0512;0.882
0.0514;0.889
0.0516;0.897
0.0518;0.904
0.052;0.91
0.0522;0.917
0.0524;0.923
0.0526;0.928
0.0528;0.934
0.053;0.939
0.0532;0.944
0.0534;0.948
0.0536;0.953
0.0538;0.957
0.054;0.96
0.0542;0.964
0.0544;0.967
0.0546;0.97
0.0548;0.973
0.055;0.976
0.0552;0.979
0.0554;0.981
0.0556;0.983
0.0558;0.985
0.056;0.987
0.0562;0.989
0.0564;0.99
0.0566;0.992
0.0568;0.993
0.057;0.994
0.0572;0.995
0.0574;0.996
0.0576;0.997
0.0578;0.998
0.058;0.998
0.0582;0.999
0.0584;0.999
0.0586;0.999
0.0588;1.0
0.059;1.0
0.0592;1.0
0.0594;1.0
0.0596;1.0
0.0598;1.0
0.06;1.0
0.0602;1.0
0.0604;0.999
0.0606;0.999
0.0608;0.999
0.061;0.998
0.0612;0.998
0.0614;0.997
0.0616;0.997
0.0618;0.996
0.062;0.996
0.0622;0.995
0.0624;0.994
0.0626;0.994
0.0628;0.993
0.063;0.992
0.0632;0.991
0.0634;0.991
0.0636;0.99
0.0638;0.989
0.064;0.988
0.0642;0.987
0.0644;0.986
0.0646;0.985
0.0648;0.985
0.065;0.984
0.0652;0.983
0.0654;0.982
0.0656;0.981
0.0658;0.98
0.066;0.979
0.0662;0.978
0.0664;0.977
0.0666;0.976
0.0668;0.975
0.067;0.974
0.0672;0.973
0.0674;0.972
0.0676;0.971
0.0678;0.97
0.068;0.969
0.0682;0.968
0.0684;0.967
0.0686;0.966
0.0688;0.964
0.069;0.963
0.0692;0.962
0.0694;0.961
0.0696;0.96
0.0698;0.959
0.07;0.958
0.0702;0.957
0.0704;0.956
0.0706;0.955
0.0708;0.954
0.071;0.953
0.0712;0.952
0.0714;0.951
0.0716;0.95
0.0718;0.949
0.072;0.948
0.0722;0.947
0.0724;0.946
0.0726;0.945
0.0728;0.944
0.073;0.942
0.0732;0.941
0.0734;0.94
0.0736;0.939
0.0738;0.938
0.074;0.937
0.0742;0.936
0.0744;0.935
0.0746;0.934
0.0748;0.933
0.075;0.932
0.0752;0.931
0.0754;0.93
0.0756;0.929
0.0758;0.928
0.076;0.927
0.0762;0.926
0.0764;0.925
0.0766;0.924
0.0768;0.924
0.077;0.923
0.0772;0.922
0.0774;0.921
0.0776;0.92
0.0778;0.919
0.078;0.918
0.0782;0.917
0.0784;0.916
0.0786;0.915
0.0788;0.914
0.079;0.913
0.0792;0.912
0.0794;0.911
0.0796;0.91
0.0798;0.909
0.08;0.909
0.0802;0.908
0.0804;0.907
0.0806;0.906
0.0808;0.905
0.081;0.904
0.0812;0.903
0.0814;0.902
0.0816;0.901
0.0818;0.901
0.082;0.9
0.0822;0.899
0.0824;0.898
0.0826;0.897
0.0828;0.896
0.083;0.895
0.0832;0.894
0.0834;0.894
0.0836;0.893
0.0838;0.892
0.084;0.891
0.0842;0.89
0.0844;0.889
0.0846;0.889
0.0848;0.888
0.085;0.887
0.0852;0.886
0.0854;0.885
0.0856;0.885
0.0858;0.884
0.086;0.883
0.0862;0.882
0.0864;0.881
0.0866;0.881
0.0868;0.88
0.087;0.879
0.0872;0.878
0.0874;0.877
0.0876;0.877
0.0878;0.876
0.088;0.875
0.0882;0.874
0.0884;0.873
0.0886;0.873
0.0888;0.872
0.089;0.871
0.0892;0.87
0.0894;0.87
0.0896;0.869
0.0898;0.868
0.09;0.867
0.0902;0.867
0.0904;0.866
0.0906;0.865
0.0908;0.864
0.091;0.864
0.0912;0.863
0.0914;0.862
0.0916;0.861
0.0918;0.861
0.092;0.86
0.0922;0.859
0.0924;0.859
0.0926;0.858
0.0928;0.857
0.093;0.856
0.0932;0.856
0.0934;0.855
0.0936;0.854
0.0938;0.854
0.094;0.853
0.0942;0.852
0.0944;0.851
0.0946;0.851
0.0948;0.85
0.095;0.849
0.0952;0.849
0.0954;0.848
0.0956;0.847
0.0958;0.847
0.096;0.846
0.0962;0.845
0.0964;0.845
0.0966;0.844
0.0968;0.843
0.097;0.842
0.0972;0.842
0.0974;0.841
0.0976;0.84
0.0978;0.84
0.098;0.839
0.0982;0.838
0.0984;0.838
0.0986;0.837
0.0988;0.836
0.099;0.836
0.0992;0.835
0.0994;0.834
0.0996;0.834
0.0998;0.833
0.1;0.832
