energy;conductance
-0.1;0.892
-0.0998;0.892
-0.0996;0.893
-0.0994;0.893
-0.0992;0.894
-0.099;0.894
-0.0988;0.895
-0.0986;0.895
-0.0984;0.896
-0.0982;0.896
-0.098;0.897
-0.0978;0.898
-0.0976;0.898
-0.0974;0.899
-0.0972;0.899
-0.097;0.9
-0.0968;0.9
-0.0966;0.901
-0.0964;0.902
-0.0962;0.902
-0.096;0.903
-0.0958;0.903
-0.0956;0.904
-0.0954;0.905
-0.0952;0.905
-0.095;0.906
-0.0948;0.906
-0.0946;0.907
-0.0944;0.908
-0.0942;0.908
-0.094;0.909
-0.0938;0.909
-0.0936;0.91
-0.0934;0.911
-0.0932;0.911
-0.093;0.912
-0.0928;0.913
-0.0926;0.913
-0.0924;0.914
-0.0922;0.914
-0.092;0.915
-0.0918;0.916
-0.0916;0.916
-0.0914;0.917
-0.0912;0.918
-0.091;0.918
-0.0908;0.919
-0.0906;0.92
-0.0904;0.92
-0.0902;0.921
-0.09;0.922
-0.0898;0.922
-0.0896;0.923
-0.0894;0.924
-0.0892;0.924
-0.089;0.925
-0.0888;0.926
-0.0886;0.927
-0.0884;0.927
-0.0882;0.928
-0.088;0.929
-0.0878;0.929
-0.0876;0.93
-0.0874;0.931
-0.0872;0.932
-0.087;0.932
-0.0868;0.933
-0.0866;0.934
-0.0864;0.935
-0.0862;0.935
-0.086;0.936
-0.0858;0.937
-0.0856;0.938
-0.0854;0.938
-0.0852;0.939
-0.085;0.94
-0.0848;0.941
-0.0846;0.941
-0.0844;0.942
-0.0842;0.943
-0.084;0.944
-0.0838;0.944
-0.0836;0.945
-0.0834;0.946
-0.0832;0.947
-0.083;0.948
-0.0828;0.948
-0.0826;0.949
-0.0824;0.95
-0.0822;0.951
-0.082;0.952
-0.0818;0.952
-0.0816;0.953
-0.0814;0.954
-0.0812;0.955
-0.081;0.956
-0.0808;0.957
-0.0806;0.957
-0.0804;0.958
-0.0802;0.959
-0.08;0.96
-0.0798;0.961
-0.0796;0.962
-0.0794;0.962
-0.0792;0.963
-0.079;0.964
-0.0788;0.965
-0.0786;0.966
-0.0784;0.967
-0.0782;0.967
-0.078;0.968
-0.0778;0.969
-0.0776;0.97
-0.0774;0.971
-0.0772;0.972
-0.077;0.972
-0.0768;0.973
-0.0766;0.974
-0.0764;0.975
-0.0762;0.976
-0.076;0.976
-0.0758;0.977
-0.0756;0.978
-0.0754;0.979
-0.0752;0.98
-0.075;0.981
-0.0748;0.981
-0.0746;0.982
-0.0744;0.983
-0.0742;0.984
-0.074;0.984
-0.0738;0.985
-0.0736;0.986
-0.0734;0.987
-0.0732;0.987
-0.073;0.988
-0.0728;0.989
-0.0726;0.99
-0.0724;0.99
-0.0722;0.991
-0.072;0.992
-0.0718;0.992
-0.0716;0.993
-0.0714;0.993
-0.0712;0.994
-0.071;0.995
-0.0708;0.995
-0.0706;0.996
-0.0704;0.996
-0.0702;0.997
-0.07;0.997
-0.0698;0.998
-0.0696;0.998
-0.0694;0.998
-0.0692;0.999
-0.069;0.999
-0.0688;0.999
-0.0686;0.999
-0.0684;1.0
-0.0682;1.0
-0.068;1.0
-0.0678;1.0
-0.0676;1.0
-0.0674;1.0
-0.0672;1.0
-0.067;1.0
-0.0668;1.0
-0.0666;0.999
-0.0664;0.999
-0.0662;0.999
-0.066;0.998
-0.0658;0.998
-0.0656;0.997
-0.0654;0.996
-0.0652;0.995
-0.065;0.995
-0.0648;0.994
-0.0646;0.993
-0.0644;0.991
-0.0642;0.99
-0.064;0.989
-0.0638;0.987
-0.0636;0.986
-0.0634;0.984
-0.0632;0.982
-0.063;0.98
-0.0628;0.978
-0.0626;0.976
-0.0624;0.973
-0.0622;0.971
-0.062;0.968
-0.0618;0.965
-0.0616;0.962
-0.0614;0.958
-0.0612;0.955
-0.061;0.951
-0.0608;0.947
-0.0606;0.943
-0.0604;0.939
-0.0602;0.934
-0.06;0.929
-0.0598;0.924
-0.0596;0.919
-0.0594;0.913
-0.0592;0.907
-0.059;0.901
-0.0588;0.894
-0.0586;0.887
-0.0584;0.88
-0.0582;0.873
-0.058;0.865
-0.0578;0.857
-0.0576;0.848
-0.0574;0.839
-0.0572;0.83
-0.057;0.821
-0.0568;0.811
-0.0566;0.801
-0.0564;0.79
-0.0562;0.779
-0.056;0.767
-0.0558;0.756
-0.0556;0.743
-0.0554;0.731
-0.0552;0.718
-0.055;0.705
-0.0548;0.691
-0.0546;0.677
-0.0544;0.663
-0.0542;0.648
-0.054;0.633
-0.0538;0.618
-0.0536;0.602
-0.0534;0.586
-0.0532;0.57
-0.053;0.553
-0.0528;0.537
-0.0526;0.52
-0.0524;0.503
-0.0522;0.486
-0.052;0.469
-0.0518;0.451
-0.0516;0.434
-0.0514;0.417
-0.0512;0.399
-0.051;0.382
-0.0508;0.365
-0.0506;0.348
-0.0504;0.331
-0.0502;0.314
-0.05;0.298
-0.0498;0.281
-0.0496;0.265
-0.0494;0.25
-0.0492;0.234
-0.049;0.22
-0.0488;0.205
-0.0486;0.191
-0.0484;0.177
-0.0482;0.164
-0.048;0.151
-0.0478;0.139
-0.0476;0.127
-0.0474;0.116
-0.0472;0.106
-0.047;0.096
-0.0468;0.086
-0.0466;0.077
-0.0464;0.069
-0.0462;0.061
-0.046;0.053
-0.0458;0.046
-0.0456;0.04
-0.0454;0.034
-0.0452;0.029
-0.045;0.024
-0.0448;0.02
-0.0446;0.016
-0.0444;0.012
-0.0442;0.01
-0.044;0.007
-0.0438;0.005
-0.0436;0.003
-0.0434;0.002
-0.0432;0.001
-0.043;0.0
-0.0428;0.0
-0.0426;0.0
-0.0424;0.0
-0.0422;0.001
-0.042;0.002
-0.0418;0.003
-0.0416;0.005
-0.0414;0.006
-0.0412;0.008
-0.041;0.01
-0.0408;0.012
-0.0406;0.015
-0.0404;0.017
-0.0402;0.02
-0.04;0.023
-0.0398;0.026
-0.0396;0.029
-0.0394;0.032
-0.0392;0.036
-0.039;0.039
-0.0388;0.042
-0.0386;0.046
-0.0384;0.05
-0.0382;0.053
-0.038;0.057
-0.0378;0.061
-0.0376;0.065
-0.0374;0.069
-0.0372;0.073
-0.037;0.076
-0.0368;0.08
-0.0366;0.084
-0.0364;0.088
-0.0362;0.092
-0.036;0.096
-0.0358;0.1
-0.0356;0.104
-0.0354;0.108
-0.0352;0.112
-0.035;0.116
-0.0348;0.12
-0.0346;0.124
-0.0344;0.128
-0.0342;0.132
-0.034;0.136
-0.0338;0.139
-0.0336;0.143
-0.0334;0.147
-0.0332;0.151
-0.033;0.155
-0.0328;0.158
-0.0326;0.162
-0.0324;0.166
-0.0322;0.169
-0.032;0.173
-0.0318;0.176
-0.0316;0.18
-0.0314;0.183
-0.0312;0.187
-0.031;0.19
-0.0308;0.194
-0.0306;0.197
-0.0304;0.2
-0.0302;0.203
-0.03;0.207
-0.0298;0.21
-0.0296;0.213
-0.0294;0.216
-0.0292;0.219
-0.029;0.222
-0.0288;0.225
-0.0286;0.228
-0.0284;0.231
-0.0282;0.234
-0.028;0.237
-0.0278;0.24
-0.0276;0.243
-0.0274;0.245
-0.0272;0.248
-0.027;0.251
-0.0268;0.253
-0.0266;0.256
-0.0264;0.259
-0.0262;0.261
-0.026;0.264
-0.0258;0.266
-0.0256;0.269
-0.0254;0.271
-0.0252;0.273
-0.025;0.276
-0.0248;0.278
-0.0246;0.28
-0.0244;0.283
-0.0242;0.285
-0.024;0.287
-0.0238;0.289
-0.0236;0.292
-0.0234;0.294
-0.0232;0.296
-0.023;0.298
-0.0228;0.3
-0.0226;0.302
-0.0224;0.304
-0.0222;0.306
-0.022;0.308
-0.0218;0.31
-0.0216;0.312
-0.0214;0.313
-0.0212;0.315
-0.021;0.317
-0.0208;0.319
-0.0206;0.32
-0.0204;0.322
-0.0202;0.324
-0.02;0.326
-0.0198;0.327
-0.0196;0.329
-0.0194;0.33
-0.0192;0.332
-0.019;0.334
-0.0188;0.335
-0.0186;0.337
-0.0184;0.338
-0.0182;0.34
-0.018;0.341
-0.0178;0.343
-0.0176;0.344
-0.0174;0.345
-0.0172;0.347
-0.017;0.348
-0.0168;0.349
-0.0166;0.351
-0.0164;0.352
-0.0162;0.353
-0.016;0.354
-0.0158;0.356
-0.0156;0.357
-0.0154;0.358
-0.0152;0.359
-0.015;0.36
-0.0148;0.362
-0.0146;0.363
-0.0144;0.364
-0.0142;0.365
-0.014;0.366
-0.0138;0.367
-0.0136;0.368
-0.0134;0.369
-0.0132;0.37
-0.013;0.371
-0.0128;0.372
-0.0126;0.373
-0.0124;0.374
-0.0122;0.375
-0.012;0.376
-0.0118;0.377
-0.0116;0.378
-0.0114;0.379
-0.0112;0.38
-0.011;0.38
-0.0108;0.381
-0.0106;0.382
-0.0104;0.383
-0.0102;0.384
-0.01;0.385
-0.0098;0.386
-0.0096;0.386
-0.0094;0.387
-0.0092;0.388
-0.009;0.389
-0.0088;0.39
-0.0086;0.391
-0.0084;0.391
-0.0082;0.392
-0.008;0.393
-0.0078;0.394
-0.0076;0.395
-0.0074;0.396
-0.0072;0.396
-0.007;0.397
-0.0068;0.398
-0.0066;0.399
-0.0064;0.4
-0.0062;0.401
-0.006;0.402
-0.0058;0.404
-0.0056;0.405
-0.0054;0.406
-0.0052;0.408
-0.005;0.409
-0.0048;0.411
-0.0046;0.413
-0.0044;0.415
-0.0042;0.418
-0.004;0.421
-0.0038;0.424
-0.0036;0.428
-0.0034;0.433
-0.0032;0.439
-0.003;0.446
-0.0028;0.455
-0.0026;0.467
-0.0024;0.484
-0.0022;0.508
-0.002;0.545
-0.0018;0.606
-0.0016;0.722
-0.0014;0.946
-0.0012;0.536
-0.001;0.0
-0.0008;0.062
-0.0006;0.119
-0.0004;0.151
-0.0002;0.168
0.0;0.173
0.0002;0.168
0.0004;0.151
0.0006;0.119
0.0008;0.062
0.001;0.0
0.0012;0.536
0.0014;0.946
0.0016;0.722
0.0018;0.606
0.002;0.545
0.0022;0.508
0.0024;0.484
0.0026;0.467
0.0028;0.455
0.003;0.446
0.0032;0.439
0.0034;0.433
0.0036;0.428
0.0038;0.424
0.004;0.421
0.0042;0.418
0.0044;0.415
0.0046;0.413
0.0048;0.411
0.005;0.409
0.0052;0.408
0.0054;0.406
0.0056;0.405
0.0058;0.404
0.006;0.402
0.0062;0.401
0.0064;0.4
0.0066;0.399
0.0068;0.398
0.007;0.397
0.0072;0.396
0.0074;0.396
0.0076;0.395
0.0078;0.394
0.008;0.393
0.0082;0.392
0.0084;0.391
0.0086;0.391
0.0088;0.39
0.009;0.389
0.0092;0.388
0.0094;0.387
0.0096;0.386
0.0098;0.386
0.01;0.385
0.0102;0.384
0.0104;0.383
0.0106;0.382
0.0108;0.381
0.011;0.38
0.0112;0.38
0.0114;0.379
0.0116;0.378
0.0118;0.377
0.012;0.376
0.0122;0.375
0.0124;0.374
0.0126;0.373
0.0128;0.372
0.013;0.371
0.0132;0.37
0.0134;0.369
0.0136;0.368
0.0138;0.367
0.014;0.366
0.0142;0.365
0.0144;0.364
0.0146;0.363
0.0148;0.362
0.015;0.36
0.0152;0.359
0.0154;0.358
0.0156;0.357
0.0158;0.356
0.016;0.354
0.0162;0.353
0.0164;0.352
0.0166;0.351
0.0168;0.349
0.017;0.348
0.0172;0.347
0.0174;0.345
0.0176;0.344
0.0178;0.343
0.018;0.341
0.0182;0.34
0.0184;0.338
0.0186;0.337
0.0188;0.335
0.019;0.334
0.0192;0.332
0.0194;0.33
0.0196;0.329
0.0198;0.327
0.02;0.326
0.0202;0.324
0.0204;0.322
0.0206;0.32
0.0208;0.319
0.021;0.317
0.0212;0.315
0.0214;0.313
0.0216;0.312
0.0218;0.31
0.022;0.308
0.0222;0.306
0.0224;0.304
0.0226;0.302
0.0228;0.3
0.023;0.298
0.0232;0.296
0.0234;0.294
0.0236;0.292
0.0238;0.289
0.024;0.287
0.0242;0.285
0.0244;0.283
0.0246;0.28
0.0248;0.278
0.025;0.276
0.0252;0.273
0.0254;0.271
0.0256;0.269
0.0258;0.266
0.026;0.264
0.0262;0.261
0.0264;0.259
0.0266;0.256
0.0268;0.253
0.027;0.251
0.0272;0.248
0.0274;0.245
0.0276;0.243
0.0278;0.24
0.028;0.237
0.0282;0.234
0.0284;0.231
0.0286;0.228
0.0288;0.225
0.029;0.222
0.0292;0.219
0.0294;0.216
0.0296;0.213
0.0298;0.21
0.03;0.207
0.0302;0.203
0.0304;0.2
0.0306;0.197
0.0308;0.194
0.031;0.19
0.0312;0.187
0.0314;0.183
0.0316;0.18
0.0318;0.176
0.032;0.173
0.0322;0.169
0.0324;0.166
0.0326;0.162
0.0328;0.158
0.033;0.155
0.0332;0.151
0.0334;0.147
0.0336;0.143
0.0338;0.139
0.034;0.136
0.0342;0.132
0.0344;0.128
0.0346;0.124
0.0348;0.12
0.035;0.116
0.0352;0.112
0.0354;0.108
0.0356;0.104
0.0358;0.1
0.036;0.096
0.0362;0.092
0.0364;0.088
0.0366;0.084
0.0368;0.08
0.037;0.076
0.0372;0.073
0.0374;0.069
0.0376;0.065
0.0378;0.061
0.038;0.057
0.0382;0.053
0.0384;0.05
0.0386;0.046
0.0388;0.042
0.039;0.039
0.0392;0.036
0.0394;0.032
0.0396;0.029
0.0398;0.026
0.04;0.023
0.0402;0.02
0.0404;0.017
0.0406;0.015
0.0408;0.012
0.041;0.01
0.0412;0.008
0.0414;0.006
0.0416;0.005
0.0418;0.003
0.042;0.002
0.0422;0.001
0.0424;0.0
0.0426;0.0
0.0428;0.0
0.043;0.0
0.0432;0.001
0.0434;0.002
0.0436;0.003
0.0438;0.005
0.044;0.007
0.0442;0.01
0.0444;0.012
0.0446;0.016
0.0448;0.02
0.045;0.024
0.0452;0.029
0.0454;0.034
0.0456;0.04
0.0458;0.046
0.046;0.053
0.0462;0.061
0.0464;0.069
0.0466;0.077
0.0468;0.086
0.047;0.096
0.0472;0.106
0.0474;0.116
0.0476;0.127
0.0478;0.139
0.048;0.151
0.0482;0.164
0.0484;0.177
0.0486;0.191
0.0488;0.205
0.049;0.22
0.0492;0.234
0.0494;0.25
0.0496;0.265
0.0498;0.281
0.05;0.298
0.0502;0.314
0.0504;0.331
0.0506;0.348
0.0508;0.365
0.051;0.382
0.0512;0.399
0.0514;0.417
0.0516;0.434
0.0518;0.451
0.052;0.469
0.0522;0.486
0.0524;0.503
0.0526;0.52
0.0528;0.537
0.053;0.553
0.0532;0.57
0.0534;0.586
0.0536;0.602
0.0538;0.618
0.054;0.633
0.0542;0.648
0.0544;0.663
0.0546;0.677
0.0548;0.691
0.055;0.705
0.0552;0.718
0.0554;0.731
0.0556;0.743
0.0558;0.756
0.056;0.767
0.0562;0.779
0.0564;0.79
0.0566;0.801
0.0568;0.811
0.057;0.821
0.0572;0.83
0.0574;0.839
0.0576;0.848
0.0578;0.857
0.058;0.865
0.0582;0.873
0.0584;0.88
0.0586;0.887
0.0588;0.894
0.059;0.901
0.0592;0.907
0.0594;0.913
0.0596;0.919
0.0598;0.924
0.06;0.929
0.0602;0.934
0.0604;0.939
0.0606;0.943
0.0608;0.947
0.061;0.951
0.0612;0.955
0.0614;0.958
0.0616;0.962
0.0618;0.965
0.062;0.968
0.0622;0.971
0.0624;0.973
0.0626;0.976
0.0628;0.978
0.063;0.98
0.0632;0.982
0.0634;0.984
0.0636;0.986
0.0638;0.987
0.064;0.989
0.0642;0.99
0.0644;0.991
0.0646;0.993
0.0648;0.994
0.065;0.995
0.0652;0.995
0.0654;0.996
0.0656;0.997
0.0658;0.998
0.066;0.998
0.0662;0.999
0.0664;0.999
0.0666;0.999
0.0668;1.0
0.067;1.0
0.0672;1.0
0.0674;1.0
0.0676;1.0
0.0678;1.0
0.068;1.0
0.0682;1.0
0.0684;1.0
0.0686;0.999
0.0688;0.999
0.069;0.999
0.0692;0.999
0.0694;0.998
0.0696;0.998
0.0698;0.998
0.07;0.997
0.0702;0.997
0.0704;0.996
0.0706;0.996
0.0708;0.995
0.071;0.995
0.0712;0.994
0.0714;0.993
0.0716;0.993
0.0718;0.992
0.072;0.992
0.0722;0.991
0.0724;0.99
0.0726;0.99
0.0728;0.989
0.073;0.988
0.0732;0.987
0.0734;0.987
0.0736;0.986
0.0738;0.985
0.074;0.984
0.0742;0.984
0.0744;0.983
0.0746;0.982
0.0748;0.981
0.075;0.981
0.0752;0.98
0.0754;0.979
0.0756;0.978
0.0758;0.977
0.076;0.976
0.0762;0.976
0.0764;0.975
0.0766;0.974
0.0768;0.973
0.077;0.972
0.0772;0.972
0.0774;0.971
0.0776;0.97
0.0778;0.969
0.078;0.968
0.0782;0.967
0.0784;0.967
0.0786;0.966
0.0788;0.965
0.079;0.964
0.0792;0.963
0.0794;0.962
0.0796;0.962
0.0798;0.961
0.08;0.96
0.0802;0.959
0.0804;0.958
0.0806;0.957
0.0808;0.957
0.081;0.956
0.0812;0.955
0.0814;0.954
0.0816;0.953
0.0818;0.952
0.082;0.952
0.0822;0.951
0.0824;0.95
0.0826;0.949
0.0828;0.948
0.083;0.948
0.0832;0.947
0.0834;0.946
0.0836;0.945
0.0838;0.944
0.084;0.944
0.0842;0.943
0.0844;0.942
0.0846;0.941
0.0848;0.941
0.085;0.94
0.0852;0.939
0.0854;0.938
0.0856;0.938
0.0858;0.937
0.086;0.936
0.0862;0.935
0.0864;0.935
0.0866;0.934
0.0868;0.933
0.087;0.932
0.0872;0.932
0.0874;0.931
0.0876;0.93
0.0878;0.929
0.088;0.929
0.0882;0.928
0.0884;0.927
0.0886;0.927
0.0888;0.926
0.089;0.925
0.0892;0.924
0.0894;0.924
0.0896;0.923
0.0898;0.922
0.09;0.922
0.0902;0.921
0.0904;0.92
0.0906;0.92
0.0908;0.919
0.091;0.918
0.0912;0.918
0.0914;0.917
0.0916;0.916
0.0918;0.916
0.092;0.915
0.0922;0.914
0.0924;0.914
0.0926;0.913
0.0928;0.913
0.093;0.912
0.0932;0.911
0.0934;0.911
0.0936;0.91
0.0938;0.909
0.094;0.909
0.0942;0.908
0.0944;0.908
0.0946;0.907
0.0948;0.906
0.095;0.906
0.0952;0.905
0.0954;0.905
0.0956;0.904
0.0958;0.903
0.096;0.903
0.0962;0.902
0.0964;0.902
0.0966;0.901
0.0968;0.9
0.097;0.9
0.0972;0.899
0.0974;0.899
0.0976;0.898
0.0978;0.898
0.098;0.897
0.0982;0.896
0.0984;0.896
0.0986;0.895
0.0988;0.895
0.099;0.894
0.0992;0.894
0.0994;0.893
0.0996;0.893
0.0998;0.892
0.1;0.892
