energy;conductance
-0.1;0.946
-0.0998;0.946
-0.0996;0.946
-0.0994;0.947
-0.0992;0.947
-0.099;0.947
-0.0988;0.947
-0.0986;0.948
-0.0984;0.948
-0.0982;0.948
-0.098;0.948
-0.0978;0.949
-0.0976;0.949
-0.0974;0.949
-0.0972;0.949
-0.097;0.95
-0.0968;0.95
-0.0966;0.95
-0.0964;0.95
-0.0962;0.951
-0.096;0.951
-0.0958;0.951
-0.0956;0.951
-0.0954;0.952
-0.0952;0.952
-0.095;0.952
-0.0948;0.953
-0.0946;0.953
-0.0944;0.953
-0.0942;0.953
-0.094;0.954
-0.0938;0.954
-0.0936;0.954
-0.0934;0.954
-0.0932;0.955
-0.093;0.955
-0.0928;0.955
-0.0926;0.955
-0.0924;0.956
-0.0922;0.956
-0.092;0.956
-0.0918;0.957
-0.0916;0.957
-0.0914;0.957
-0.0912;0.957
-0.091;0.958
-0.0908;0.958
-0.0906;0.958
-0.0904;0.958
-0.0902;0.959
-0.09;0.959
-0.0898;0.959
-0.0896;0.96
-0.0894;0.96
-0.0892;0.96
-0.089;0.96
-0.0888;0.961
-0.0886;0.961
-0.0884;0.961
-0.0882;0.962
-0.088;0.962
-0.0878;0.962
-0.0876;0.963
-0.0874;0.963
-0.0872;0.963
-0.087;0.963
-0.0868;0.964
-0.0866;0.964
-0.0864;0.964
-0.0862;0.965
-0.086;0.965
-0.0858;0.965
-0.0856;0.966
-0.0854;0.966
-0.0852;0.966
-0.085;0.966
-0.0848;0.967
-0.0846;0.967
-0.0844;0.967
-0.0842;0.968
-0.084;0.968
-0.0838;0.968
-0.0836;0.969
-0.0834;0.969
-0.0832;0.969
-0.083;0.97
-0.0828;0.97
-0.0826;0.97
-0.0824;0.971
-0.0822;0.971
-0.082;0.971
-0.0818;0.972
-0.0816;0.972
-0.0814;0.972
-0.0812;0.972
-0.081;0.973
-0.0808;0.973
-0.0806;0.973
-0.0804;0.974
-0.0802;0.974
-0.08;0.974
-0.0798;0.975
-0.0796;0.975
-0.0794;0.976
-0.0792;0.976
-0.079;0.976
-0.0788;0.977
-0.0786;0.977
-0.0784;0.977
-0.0782;0.978
-0.078;0.978
-0.0778;0.978
-0.0776;0.979
-0.0774;0.979
-0.0772;0.979
-0.077;0.98
-0.0768;0.98
-0.0766;0.98
-0.0764;0.981
-0.0762;0.981
-0.076;0.981
-0.0758;0.982
-0.0756;0.982
-0.0754;0.982
-0.0752;0.983
-0.075;0.983
-0.0748;0.984
-0.0746;0.984
-0.0744;0.984
-0.0742;0.985
-0.074;0.985
-0.0738;0.985
-0.0736;0.986
-0.0734;0.986
-0.0732;0.986
-0.073;0.987
-0.0728;0.987
-0.0726;0.988
-0.0724;0.988
-0.0722;0.988
-0.072;0.989
-0.0718;0.989
-0.0716;0.989
-0.0714;0.99
-0.0712;0.99
-0.071;0.99
-0.0708;0.991
-0.0706;0.991
-0.0704;0.991
-0.0702;0.992
-0.07;0.992
-0.0698;0.992
-0.0696;0.993
-0.0694;0.993
-0.0692;0.993
-0.069;0.994
-0.0688;0.994
-0.0686;0.994
-0.0684;0.995
-0.0682;0.995
-0.068;0.995
-0.0678;0.996
-0.0676;0.996
-0.0674;0.996
-0.0672;0.996
-0.067;0.997
-0.0668;0.997
-0.0666;0.997
-0.0664;0.998
-0.0662;0.998
-0.066;0.998
-0.0658;0.998
-0.0656;0.998
-0.0654;0.999
-0.0652;0.999
-0.065;0.999
-0.0648;0.999
-0.0646;0.999
-0.0644;0.999
-0.0642;1.0
-0.064;1.0
-0.0638;1.0
-0.0636;1.0
-0.0634;1.0
-0.0632;1.0
-0.063;1.0
-0.0628;1.0
-0.0626;1.0
-0.0624;1.0
-0.0622;1.0
-0.062;1.0
-0.0618;1.0
-0.0616;0.999
-0.0614;0.999
-0.0612;0.999
-0.061;0.999
-0.0608;0.998
-0.0606;0.998
-0.0604;0.998
-0.0602;0.997
-0.06;0.997
-0.0598;0.996
-0.0596;0.996
-0.0594;0.995
-0.0592;0.994
-0.059;0.994
-0.0588;0.993
-0.0586;0.992
-0.0584;0.991
-0.0582;0.99
-0.058;0.989
-0.0578;0.987
-0.0576;0.986
-0.0574;0.985
-0.0572;0.983
-0.057;0.982
-0.0568;0.98
-0.0566;0.978
-0.0564;0.976
-0.0562;0.974
-0.056;0.972
-0.0558;0.969
-0.0556;0.967
-0.0554;0.964
-0.0552;0.961
-0.055;0.958
-0.0548;0.954
-0.0546;0.951
-0.0544;0.947
-0.0542;0.943
-0.054;0.939
-0.0538;0.934
-0.0536;0.93
-0.0534;0.925
-0.0532;0.919
-0.053;0.914
-0.0528;0.908
-0.0526;0.901
-0.0524;0.894
-0.0522;0.887
-0.052;0.88
-0.0518;0.872
-0.0516;0.863
-0.0514;0.854
-0.0512;0.845
-0.051;0.835
-0.0508;0.824
-0.0506;0.813
-0.0504;0.801
-0.0502;0.789
-0.05;0.776
-0.0498;0.762
-0.0496;0.748
-0.0494;0.733
-0.0492;0.717
-0.049;0.701
-0.0488;0.683
-0.0486;0.666
-0.0484;0.647
-0.0482;0.628
-0.048;0.607
-0.0478;0.587
-0.0476;0.565
-0.0474;0.543
-0.0472;0.52
-0.047;0.497
-0.0468;0.473
-0.0466;0.449
-0.0464;0.424
-0.0462;0.4
-0.046;0.375
-0.0458;0.349
-0.0456;0.324
-0.0454;0.3
-0.0452;0.275
-0.045;0.251
-0.0448;0.227
-0.0446;0.204
-0.0444;0.182
-0.0442;0.161
-0.044;0.14
-0.0438;0.121
-0.0436;0.103
-0.0434;0.087
-0.0432;0.071
-0.043;0.058
-0.0428;0.045
-0.0426;0.034
-0.0424;0.025
-0.0422;0.017
-0.042;0.011
-0.0418;0.006
-0.0416;0.003
-0.0414;0.001
-0.0412;0.0
-0.041;0.0
-0.0408;0.002
-0.0406;0.005
-0.0404;0.009
-0.0402;0.013
-0.04;0.019
-0.0398;0.025
-0.0396;0.032
-0.0394;0.04
-0.0392;0.048
-0.039;0.057
-0.0388;0.066
-0.0386;0.076
-0.0384;0.085
-0.0382;0.095
-0.038;0.106
-0.0378;0.116
-0.0376;0.126
-0.0374;0.137
-0.0372;0.147
-0.037;0.158
-0.0368;0.169
-0.0366;0.179
-0.0364;0.19
-0.0362;0.2
-0.036;0.21
-0.0358;0.221
-0.0356;0.231
-0.0354;0.24
-0.0352;0.25
-0.035;0.26
-0.0348;0.269
-0.0346;0.279
-0.0344;0.288
-0.0342;0.297
-0.034;0.306
-0.0338;0.314
-0.0336;0.323
-0.0334;0.331
-0.0332;0.339
-0.033;0.347
-0.0328;0.355
-0.0326;0.362
-0.0324;0.37
-0.0322;0.377
-0.032;0.384
-0.0318;0.391
-0.0316;0.398
-0.0314;0.405
-0.0312;0.411
-0.031;0.418
-0.0308;0.424
-0.0306;0.43
-0.0304;0.436
-0.0302;0.442
-0.03;0.447
-0.0298;0.453
-0.0296;0.458
-0.0294;0.464
-0.0292;0.469
-0.029;0.474
-0.0288;0.479
-0.0286;0.484
-0.0284;0.488
-0.0282;0.493
-0.028;0.498
-0.0278;0.502
-0.0276;0.506
-0.0274;0.511
-0.0272;0.515
-0.027;0.519
-0.0268;0.523
-0.0266;0.527
-0.0264;0.53
-0.0262;0.534
-0.026;0.538
-0.0258;0.541
-0.0256;0.545
-0.0254;0.548
-0.0252;0.552
-0.025;0.555
-0.0248;0.558
-0.0246;0.561
-0.0244;0.564
-0.0242;0.567
-0.024;0.57
-0.0238;0.573
-0.0236;0.576
-0.0234;0.579
-0.0232;0.581
-0.023;0.584
-0.0228;0.587
-0.0226;0.589
-0.0224;0.592
-0.0222;0.594
-0.022;0.596
-0.0218;0.599
-0.0216;0.601
-0.0214;0.603
-0.0212;0.606
-0.021;0.608
-0.0208;0.61
-0.0206;0.612
-0.0204;0.614
-0.0202;0.616
-0.02;0.618
-0.0198;0.62
-0.0196;0.622
-0.0194;0.624
-0.0192;0.626
-0.019;0.627
-0.0188;0.629
-0.0186;0.631
-0.0184;0.633
-0.0182;0.634
-0.018;0.636
-0.0178;0.638
-0.0176;0.639
-0.0174;0.641
-0.0172;0.642
-0.017;0.644
-0.0168;0.645
-0.0166;0.647
-0.0164;0.648
-0.0162;0.65
-0.016;0.651
-0.0158;0.652
-0.0156;0.654
-0.0154;0.655
-0.0152;0.657
-0.015;0.658
-0.0148;0.659
-0.0146;0.66
-0.0144;0.662
-0.0142;0.663
-0.014;0.664
-0.0138;0.665
-0.0136;0.666
-0.0134;0.668
-0.0132;0.669
-0.013;0.67
-0.0128;0.671
-0.0126;0.672
-0.0124;0.673
-0.0122;0.674
-0.012;0.676
-0.0118;0.677
-0.0116;0.678
-0.0114;0.679
-0.0112;0.68
-0.011;0.681
-0.0108;0.682
-0.0106;0.683
-0.0104;0.684
-0.0102;0.685
-0.01;0.687
-0.0098;0.688
-0.0096;0.689
-0.0094;0.69
-0.0092;0.691
-0.009;0.692
-0.0088;0.694
-0.0086;0.695
-0.0084;0.696
-0.0082;0.698
-0.008;0.699
-0.0078;0.701
-0.0076;0.702
-0.0074;0.704
-0.0072;0.706
-0.007;0.708
-0.0068;0.71
-0.0066;0.712
-0.0064;0.714
-0.0062;0.717
-0.006;0.719
-0.0058;0.723
-0.0056;0.726
-0.0054;0.73
-0.0052;0.734
-0.005;0.739
-0.0048;0.745
-0.0046;0.751
-0.0044;0.759
-0.0042;0.769
-0.004;0.78
-0.0038;0.794
-0.0036;0.812
-0.0034;0.835
-0.0032;0.865
-0.003;0.905
-0.0028;0.957
-0.0026;1.0
-0.0024;0.862
-0.0022;0.209
-0.002;0.013
-0.0018;0.149
-0.0016;0.262
-0.0014;0.335
-0.0012;0.383
-0.001;0.415
-0.0008;0.438
-0.0006;0.453
-0.0004;0.465
-0.0002;0.481
0.0;0.313
0.0002;0.481
0.0004;0.465
0.0006;0.453
0.0008;0.438
0.001;0.415
0.0012;0.383
0.0014;0.335
0.0016;0.262
0.0018;0.149
0.002;0.013
0.0022;0.209
0.0024;0.862
0.0026;1.0
0.0028;0.957
0.003;0.905
0.0032;0.865
0.0034;0.835
0.0036;0.812
0.0038;0.794
0.004;0.78
0.0042;0.769
0.0044;0.759
0.0046;0.751
0.0048;0.745
0.005;0.739
0.0052;0.734
0.0054;0.73
0.0056;0.726
0.0058;0.723
0.006;0.719
0.0062;0.717
0.0064;0.714
0.0066;0.712
0.0068;0.71
0.007;0.708
0.0072;0.706
0.0074;0.704
0.0076;0.702
0.0078;0.701
0.008;0.699
0.0082;0.698
0.0084;0.696
0.0086;0.695
0.0088;0.694
0.009;0.692
0.0092;0.691
0.0094;0.69
0.0096;0.689
0.0098;0.688
0.01;0.687
0.0102;0.685
0.0104;0.684
0.0106;0.683
0.0108;0.682
0.011;0.681
0.0112;0.68
0.0114;0.679
0.0116;0.678
0.0118;0.677
0.012;0.676
0.0122;0.674
0.0124;0.673
0.0126;0.672
0.0128;0.671
0.013;0.67
0.0132;0.669
0.0134;0.668
0.0136;0.666
0.0138;0.665
0.014;0.664
0.0142;0.663
0.0144;0.662
0.0146;0.66
0.0148;0.659
0.015;0.658
0.0152;0.657
0.0154;0.655
0.0156;0.654
0.0158;0.652
0.016;0.651
0.0162;0.65
0.0164;0.648
0.0166;0.647
0.0168;0.645
0.017;0.644
0.0172;0.642
0.0174;0.641
0.0176;0.639
0.0178;0.638
0.018;0.636
0.0182;0.634
0.0184;0.633
0.0186;0.631
0.0188;0.629
0.019;0.627
0.0192;0.626
0.0194;0.624
0.0196;0.622
0.0198;0.62
0.02;0.618
0.0202;0.616
0.0204;0.614
0.0206;0.612
0.0208;0.61
0.021;0.608
0.0212;0.606
0.0214;0.603
0.0216;0.601
0.0218;0.599
0.022;0.596
0.0222;0.594
0.0224;0.592
0.0226;0.589
0.0228;0.587
0.023;0.584
0.0232;0.581
0.0234;0.579
0.0236;0.576
0.0238;0.573
0.024;0.57
0.0242;0.567
0.0244;0.564
0.0246;0.561
0.0248;0.558
0.025;0.555
0.0252;0.552
0.0254;0.548
0.0256;0.545
0.0258;0.541
0.026;0.538
0.0262;0.534
0.0264;0.53
0.0266;0.527
0.0268;0.523
0.027;0.519
0.0272;0.515
0.0274;0.511
0.0276;0.506
0.0278;0.502
0.028;0.498
0.0282;0.493
0.0284;0.488
0.0286;0.484
0.0288;0.479
0.029;0.474
0.0292;0.469
0.0294;0.464
0.0296;0.458
0.0298;0.453
0.03;0.447
0.0302;0.442
0.0304;0.436
0.0306;0.43
0.0308;0.424
0.031;0.418
0.0312;0.411
0.0314;0.405
0.0316;0.398
0.0318;0.391
0.032;0.384
0.0322;0.377
0.0324;0.37
0.0326;0.362
0.0328;0.355
0.033;0.347
0.0332;0.339
0.0334;0.331
0.0336;0.323
0.0338;0.314
0.034;0.306
0.0342;0.297
0.0344;0.288
0.0346;0.279
0.0348;0.269
0.035;0.26
0.0352;0.25
0.0354;0.24
0.0356;0.231
0.0358;0.221
0.036;0.21
0.0362;0.2
0.0364;0.19
0.0366;0.179
0.0368;0.169
0.037;0.158
0.0372;0.147
0.0374;0.137
0.0376;0.126
0.0378;0.116
0.038;0.106
0.0382;0.095
0.0384;0.085
0.0386;0.076
0.0388;0.066
0.039;0.057
0.0392;0.048
0.0394;0.04
0.0396;0.032
0.0398;0.025
0.04;0.019
0.0402;0.013
0.0404;0.009
0.0406;0.005
0.0408;0.002
0.041;0.0
0.0412;0.0
0.0414;0.001
0.0416;0.003
0.0418;0.006
0.042;0.011
0.0422;0.017
0.0424;0.025
0.0426;0.034
0.0428;0.045
0.043;0.058
0.0432;0.071
0.0434;0.087
0.0436;0.103
0.0438;0.121
0.044;0.14
0.0442;0.161
0.0444;0.182
0.0446;0.204
0.0448;0.227
0.045;0.251
0.0452;0.275
0.0454;0.3
0.0456;0.324
0.0458;0.349
0.046;0.375
0.0462;0.4
0.0464;0.424
0.0466;0.449
0.0468;0.473
0.047;0.497
0.0472;0.52
0.0474;0.543
0.0476;0.565
0.0478;0.587
0.048;0.607
0.0482;0.628
0.0484;0.647
0.0486;0.666
0.0488;0.683
0.049;0.701
0.0492;0.717
0.0494;0.733
0.0496;0.748
0.0498;0.762
0.05;0.776
0.0502;0.789
0.0504;0.801
0.0506;0.813
0.0508;0.824
0.051;0.835
0.0512;0.845
0.0514;0.854
0.0516;0.863
0.0518;0.872
0.052;0.88
0.0522;0.887
0.0524;0.894
0.0526;0.901
0.0528;0.908
0.053;0.914
0.0532;0.919
0.0534;0.925
0.0536;0.93
0.0538;0.934
0.054;0.939
0.0542;0.943
0.0544;0.947
0.0546;0.951
0.0548;0.954
0.055;0.958
0.0552;0.961
0.0554;0.964
0.0556;0.967
0.0558;0.969
0.056;0.972
0.0562;0.974
0.0564;0.976
0.0566;0.978
0.0568;0.98
0.057;0.982
0.0572;0.983
0.0574;0.985
0.0576;0.986
0.0578;0.987
0.058;0.989
0.0582;0.99
0.0584;0.991
0.0586;0.992
0.0588;0.993
0.059;0.994
0.0592;0.994
0.0594;0.995
0.0596;0.996
0.0598;0.996
0.06;0.997
0.0602;0.997
0.0604;0.998
0.0606;0.998
0.0608;0.998
0.061;0.999
0.0612;0.999
0.0614;0.999
0.0616;0.999
0.0618;1.0
0.062;1.0
0.0622;1.0
0.0624;1.0
0.0626;1.0
0.0628;1.0
0.063;1.0
0.0632;1.0
0.0634;1.0
0.0636;1.0
0.0638;1.0
0.064;1.0
0.0642;1.0
0.0644;0.999
0.0646;0.999
0.0648;0.999
0.065;0.999
0.0652;0.999
0.0654;0.999
0.0656;0.998
0.0658;0.998
0.066;0.998
0.0662;0.998
0.0664;0.998
0.0666;0.997
0.0668;0.997
0.067;0.997
0.0672;0.996
0.0674;0.996
0.0676;0.996
0.0678;0.996
0.068;0.995
0.0682;0.995
0.0684;0.995
0.0686;0.994
0.0688;0.994
0.069;0.994
0.0692;0.993
0.0694;0.993
0.0696;0.993
0.0698;0.992
0.07;0.992
0.0702;0.992
0.0704;0.991
0.0706;0.991
0.0708;0.991
0.071;0.99
0.0712;0.99
0.0714;0.99
0.0716;0.989
0.0718;0.989
0.072;0.989
0.0722;0.988
0.0724;0.988
0.0726;0.988
0.0728;0.987
0.073;0.987
0.0732;0.986
0.0734;0.986
0.0736;0.986
0.0738;0.985
0.074;0.985
0.0742;0.985
0.0744;0.984
0.0746;0.984
0.0748;0.984
0.075;0.983
0.0752;0.983
0.0754;0.982
0.0756;0.982
0.0758;0.982
0.076;0.981
0.0762;0.981
0.0764;0.981
0.0766;0.98
0.0768;0.98
0.077;0.98
0.0772;0.979
0.0774;0.979
0.0776;0.979
0.0778;0.978
0.078;0.978
0.0782;0.978
0.0784;0.977
0.0786;0.977
0.0788;0.977
0.079;0.976
0.0792;0.976
0.0794;0.976
0.0796;0.975
0.0798;0.975
0.08;0.974
0.0802;0.974
0.0804;0.974
0.0806;0.973
0.0808;0.973
0.081;0.973
0.0812;0.972
0.0814;0.972
0.0816;0.972
0.0818;0.972
0.082;0.971
0.0822;0.971
0.0824;0.971
0.0826;0.97
0.0828;0.97
0.083;0.97
0.0832;0.969
0.0834;0.969
0.0836;0.969
0.0838;0.968
0.084;0.968
0.0842;0.968
0.0844;0.967
0.0846;0.967
0.0848;0.967
0.085;0.966
0.0852;0.966
0.0854;0.966
0.0856;0.966
0.0858;0.965
0.086;0.965
0.0862;0.965
0.0864;0.964
0.0866;0.964
0.0868;0.964
0.087;0.963
0.0872;0.963
0.0874;0.963
0.0876;0.963
0.0878;0.962
0.088;0.962
0.0882;0.962
0.0884;0.961
0.0886;0.961
0.0888;0.961
0.089;0.96
0.0892;0.96
0.0894;0.96
0.0896;0.96
0.0898;0.959
0.09;0.959
0.0902;0.959
0.0904;0.958
0.0906;0.958
0.0908;0.958
0.091;0.958
0.0912;0.957
0.0914;0.957
0.0916;0.957
0.0918;0.957
0.092;0.956
0.0922;0.956
0.0924;0.956
0.0926;0.955
0.0928;0.955
0.093;0.955
0.0932;0.955
0.0934;0.954
0.0936;0.954
0.0938;0.954
0.094;0.954
0.0942;0.953
0.0944;0.953
0.0946;0.953
0.0948;0.953
0.095;0.952
0.0952;0.952
0.0954;0.952
0.0956;0.951
0.0958;0.951
0.096;0.951
0.0962;0.951
0.0964;0.95
0.0966;0.95
0.0968;0.95
0.097;0.95
0.0972;0.949
0.0974;0.949
0.0976;0.949
0.0978;0.949
0.098;0.948
0.0982;0.948
0.0984;0.948
0.0986;0.948
0.0988;0.947
0.099;0.947
0.0992;0.947
0.0994;0.947
0.0996;0.946
0.0998;0.946
0.1;0.946
