energy;conductance
-0.1;0.079
-0.0998;0.096
-0.0996;0.113
-0.0994;0.132
-0.0992;0.151
-0.099;0.171
-0.0988;0.191
-0.0986;0.211
-0.0984;0.231
-0.0982;0.251
-0.098;0.271
-0.0978;0.29
-0.0976;0.31
-0.0974;0.329
-0.0972;0.347
-0.097;0.365
-0.0968;0.383
-0.0966;0.4
-0.0964;0.417
-0.0962;0.433
-0.096;0.448
-0.0958;0.463
-0.0956;0.478
-0.0954;0.492
-0.0952;0.506
-0.095;0.519
-0.0948;0.532
-0.0946;0.544
-0.0944;0.556
-0.0942;0.567
-0.094;0.578
-0.0938;0.589
-0.0936;0.599
-0.0934;0.609
-0.0932;0.618
-0.093;0.627
-0.0928;0.636
-0.0926;0.645
-0.0924;0.653
-0.0922;0.661
-0.092;0.668
-0.0918;0.676
-0.0916;0.683
-0.0914;0.69
-0.0912;0.696
-0.091;0.703
-0.0908;0.709
-0.0906;0.715
-0.0904;0.72
-0.0902;0.726
-0.09;0.731
-0.0898;0.737
-0.0896;0.742
-0.0894;0.747
-0.0892;0.751
-0.089;0.756
-0.0888;0.76
-0.0886;0.765
-0.0884;0.769
-0.0882;0.773
-0.088;0.777
-0.0878;0.78
-0.0876;0.784
-0.0874;0.788
-0.0872;0.791
-0.087;0.794
-0.0868;0.798
-0.0866;0.801
-0.0864;0.804
-0.0862;0.807
-0.086;0.81
-0.0858;0.813
-0.0856;0.815
-0.0854;0.818
-0.0852;0.821
-0.085;0.823
-0.0848;0.826
-0.0846;0.828
-0.0844;0.831
-0.0842;0.833
-0.084;0.835
-0.0838;0.837
-0.0836;0.839
-0.0834;0.841
-0.0832;0.843
-0.083;0.845
-0.0828;0.847
-0.0826;0.849
-0.0824;0.851
-0.0822;0.853
-0.082;0.855
-0.0818;0.856
-0.0816;0.858
-0.0814;0.86
-0.0812;0.861
-0.081;0.863
-0.0808;0.864
-0.0806;0.866
-0.0804;0.867
-0.0802;0.869
-0.08;0.87
-0.0798;0.871
-0.0796;0.873
-0.0794;0.874
-0.0792;0.875
-0.079;0.877
-0.0788;0.878
-0.0786;0.879
-0.0784;0.88
-0.0782;0.881
-0.078;0.882
-0.0778;0.884
-0.0776;0.885
-0.0774;0.886
-0.0772;0.887
-0.077;0.888
-0.0768;0.889
-0.0766;0.89
-0.0764;0.891
-0.0762;0.892
-0.076;0.893
-0.0758;0.894
-0.0756;0.894
-0.0754;0.895
-0.0752;0.896
-0.075;0.897
-0.0748;0.898
-0.0746;0.899
-0.0744;0.899
-0.0742;0.9
-0.074;0.901
-0.0738;0.902
-0.0736;0.903
-0.0734;0.903
-0.0732;0.904
-0.073;0.905
-0.0728;0.905
-0.0726;0.906
-0.0724;0.907
-0.0722;0.907
-0.072;0.908
-0.0718;0.909
-0.0716;0.909
-0.0714;0.91
-0.0712;0.911
-0.071;0.911
-0.0708;0.912
-0.0706;0.912
-0.0704;0.913
-0.0702;0.914
-0.07;0.914
-0.0698;0.915
-0.0696;0.915
-0.0694;0.916
-0.0692;0.916
-0.069;0.917
-0.0688;0.917
-0.0686;0.918
-0.0684;0.918
-0.0682;0.919
-0.068;0.919
-0.0678;0.92
-0.0676;0.92
-0.0674;0.921
-0.0672;0.921
-0.067;0.922
-0.0668;0.922
-0.0666;0.922
-0.0664;0.923
-0.0662;0.923
-0.066;0.924
-0.0658;0.924
-0.0656;0.925
-0.0654;0.925
-0.0652;0.925
-0.065;0.926
-0.0648;0.926
-0.0646;0.927
-0.0644;0.927
-0.0642;0.927
-0.064;0.928
-0.0638;0.928
-0.0636;0.928
-0.0634;0.929
-0.0632;0.929
-0.063;0.929
-0.0628;0.93
-0.0626;0.93
-0.0624;0.93
-0.0622;0.931
-0.062;0.931
-0.0618;0.931
-0.0616;0.932
-0.0614;0.932
-0.0612;0.932
-0.061;0.933
-0.0608;0.933
-0.0606;0.933
-0.0604;0.933
-0.0602;0.934
-0.06;0.934
-0.0598;0.934
-0.0596;0.935
-0.0594;0.935
-0.0592;0.935
-0.059;0.935
-0.0588;0.936
-0.0586;0.936
-0.0584;0.936
-0.0582;0.936
-0.058;0.937
-0.0578;0.937
-0.0576;0.937
-0.0574;0.937
-0.0572;0.938
-0.057;0.938
-0.0568;0.938
-0.0566;0.938
-0.0564;0.939
-0.0562;0.939
-0.056;0.939
-0.0558;0.939
-0.0556;0.94
-0.0554;0.94
-0.0552;0.94
-0.055;0.94
-0.0548;0.94
-0.0546;0.941
-0.0544;0.941
-0.0542;0.941
-0.054;0.941
-0.0538;0.941
-0.0536;0.942
-0.0534;0.942
-0.0532;0.942
-0.053;0.942
-0.0528;0.942
-0.0526;0.943
-0.0524;0.943
-0.0522;0.943
-0.052;0.943
-0.0518;0.943
-0.0516;0.943
-0.0514;0.944
-0.0512;0.944
-0.051;0.944
-0.0508;0.944
-0.0506;0.944
-0.0504;0.944
-0.0502;0.945
-0.05;0.945
-0.0498;0.945
-0.0496;0.945
-0.0494;0.945
-0.0492;0.945
-0.049;0.946
-0.0488;0.946
-0.0486;0.946
-0.0484;0.946
-0.0482;0.946
-0.048;0.946
-0.0478;0.947
-0.0476;0.947
-0.0474;0.947
-0.0472;0.947
-0.047;0.947
-0.0468;0.947
-0.0466;0.947
-0.0464;0.947
-0.0462;0.948
-0.046;0.948
-0.0458;0.948
-0.0456;0.948
-0.0454;0.948
-0.0452;0.948
-0.045;0.948
-0.0448;0.949
-0.0446;0.949
-0.0444;0.949
-0.0442;0.949
-0.044;0.949
-0.0438;0.949
-0.0436;0.949
-0.0434;0.949
-0.0432;0.949
-0.043;0.95
-0.0428;0.95
-0.0426;0.95
-0.0424;0.95
-0.0422;0.95
-0.042;0.95
-0.0418;0.95
-0.0416;0.95
-0.0414;0.95
-0.0412;0.951
-0.041;0.951
-0.0408;0.951
-0.0406;0.951
-0.0404;0.951
-0.0402;0.951
-0.04;0.951
-0.0398;0.951
-0.0396;0.951
-0.0394;0.952
-0.0392;0.952
-0.039;0.952
-0.0388;0.952
-0.0386;0.952
-0.0384;0.952
-0.0382;0.952
-0.038;0.952
-0.0378;0.952
-0.0376;0.952
-0.0374;0.952
-0.0372;0.953
-0.037;0.953
-0.0368;0.953
-0.0366;0.953
-0.0364;0.953
-0.0362;0.953
-0.036;0.953
-0.0358;0.953
-0.0356;0.953
-0.0354;0.953
-0.0352;0.953
-0.035;0.953
-0.0348;0.954
-0.0346;0.954
-0.0344;0.954
-0.0342;0.954
-0.034;0.954
-0.0338;0.954
-0.0336;0.954
-0.0334;0.954
-0.0332;0.954
-0.033;0.954
-0.0328;0.954
-0.0326;0.954
-0.0324;0.954
-0.0322;0.954
-0.032;0.955
-0.0318;0.955
-0.0316;0.955
-0.0314;0.955
-0.0312;0.955
-0.031;0.955
-0.0308;0.955
-0.0306;0.955
-0.0304;0.955
-0.0302;0.955
-0.03;0.955
-0.0298;0.955
-0.0296;0.955
-0.0294;0.955
-0.0292;0.955
-0.029;0.955
-0.0288;0.956
-0.0286;0.956
-0.0284;0.956
-0.0282;0.956
-0.028;0.956
-0.0278;0.956
-0.0276;0.956
-0.0274;0.956
-0.0272;0.956
-0.027;0.956
-0.0268;0.956
-0.0266;0.956
-0.0264;0.956
-0.0262;0.956
-0.026;0.956
-0.0258;0.956
-0.0256;0.956
-0.0254;0.956
-0.0252;0.957
-0.025;0.957
-0.0248;0.957
-0.0246;0.957
-0.0244;0.957
-0.0242;0.957
-0.024;0.957
-0.0238;0.957
-0.0236;0.957
-0.0234;0.957
-0.0232;0.957
-0.023;0.957
-0.0228;0.957
-0.0226;0.957
-0.0224;0.957
-0.0222;0.957
-0.022;0.957
-0.0218;0.957
-0.0216;0.957
-0.0214;0.957
-0.0212;0.957
-0.021;0.957
-0.0208;0.957
-0.0206;0.958
-0.0204;0.958
-0.0202;0.958
-0.02;0.958
-0.0198;0.958
-0.0196;0.958
-0.0194;0.958
-0.0192;0.958
-0.019;0.958
-0.0188;0.958
-0.0186;0.958
-0.0184;0.958
-0.0182;0.958
-0.018;0.958
-0.0178;0.958
-0.0176;0.958
-0.0174;0.958
-0.0172;0.958
-0.017;0.958
-0.0168;0.958
-0.0166;0.958
-0.0164;0.958
-0.0162;0.958
-0.016;0.958
-0.0158;0.958
-0.0156;0.958
-0.0154;0.958
-0.0152;0.958
-0.015;0.958
-0.0148;0.958
-0.0146;0.958
-0.0144;0.958
-0.0142;0.959
-0.014;0.959
-0.0138;0.959
-0.0136;0.959
-0.0134;0.959
-0.0132;0.959
-0.013;0.959
-0.0128;0.959
-0.0126;0.959
-0.0124;0.959
-0.0122;0.959
-0.012;0.959
-0.0118;0.959
-0.0116;0.959
-0.0114;0.959
-0.0112;0.959
-0.011;0.959
-0.0108;0.959
-0.0106;0.959
-0.0104;0.959
-0.0102;0.959
-0.01;0.959
-0.0098;0.959
-0.0096;0.959
-0.0094;0.959
-0.0092;0.959
-0.009;0.959
-0.0088;0.959
-0.0086;0.959
-0.0084;0.959
-0.0082;0.959
-0.008;0.959
-0.0078;0.959
-0.0076;0.959
-0.0074;0.959
-0.0072;0.959
-0.007;0.959
-0.0068;0.959
-0.0066;0.959
-0.0064;0.959
-0.0062;0.959
-0.006;0.959
-0.0058;0.959
-0.0056;0.959
-0.0054;0.959
-0.0052;0.959
-0.005;0.959
-0.0048;0.959
-0.0046;0.959
-0.0044;0.959
-0.0042;0.959
-0.004;0.959
-0.0038;0.959
-0.0036;0.959
-0.0034;0.959
-0.0032;0.959
-0.003;0.959
-0.0028;0.959
-0.0026;0.959
-0.0024;0.959
-0.0022;0.959
-0.002;0.959
-0.0018;0.959
-0.0016;0.959
-0.0014;0.959
-0.0012;0.959
-0.001;0.959
-0.0008;0.959
-0.0006;0.959
-0.0004;0.959
-0.0002;0.959
0.0;0.959
0.0002;0.959
0.0004;0.959
0.0006;0.959
0.0008;0.959
0.001;0.959
0.0012;0.959
0.0014;0.959
0.0016;0.959
0.0018;0.959
0.002;0.959
0.0022;0.959
0.0024;0.959
0.0026;0.959
0.0028;0.959
0.003;0.959
0.0032;0.959
0.0034;0.959
0.0036;0.959
0.0038;0.959
0.004;0.959
0.0042;0.959
0.0044;0.959
0.0046;0.959
0.0048;0.959
0.005;0.959
0.0052;0.959
0.0054;0.959
0.0056;0.959
0.0058;0.959
0.006;0.959
0.0062;0.959
0.0064;0.959
0.0066;0.959
0.0068;0.959
0.007;0.959
0.0072;0.959
0.0074;0.959
0.0076;0.959
0.0078;0.959
0.008;0.959
0.0082;0.959
0.0084;0.959
0.0086;0.959
0.0088;0.959
0.009;0.959
0.0092;0.959
0.0094;0.959
0.0096;0.959
0.0098;0.959
0.01;0.959
0.0102;0.959
0.0104;0.959
0.0106;0.959
0.0108;0.959
0.011;0.959
0.0112;0.959
0.0114;0.959
0.0116;0.959
0.0118;0.959
0.012;0.959
0.0122;0.959
0.0124;0.959
0.0126;0.959
0.0128;0.959
0.013;0.959
0.0132;0.959
0.0134;0.959
0.0136;0.959
0.0138;0.959
0.014;0.959
0.0142;0.959
0.0144;0.958
0.0146;0.958
0.0148;0.958
0.015;0.958
0.0152;0.958
0.0154;0.958
0.0156;0.958
0.0158;0.958
0.016;0.958
0.0162;0.958
0.0164;0.958
0.0166;0.958
0.0168;0.958
0.017;0.958
0.0172;0.958
0.0174;0.958
0.0176;0.958
0.0178;0.958
0.018;0.958
0.0182;0.958
0.0184;0.958
0.0186;0.958
0.0188;0.958
0.019;0.958
0.0192;0.958
0.0194;0.958
0.0196;0.958
0.0198;0.958
0.02;0.958
0.0202;0.958
0.0204;0.958
0.0206;0.958
0.0208;0.957
0.021;0.957
0.0212;0.957
0.0214;0.957
0.0216;0.957
0.0218;0.957
0.022;0.957
0.0222;0.957
0.0224;0.957
0.0226;0.957
0.0228;0.957
0.023;0.957
0.0232;0.957
0.0234;0.957
0.0236;0.957
0.0238;0.957
0.024;0.957
0.0242;0.957
0.0244;0.957
0.0246;0.957
0.0248;0.957
0.025;0.957
0.0252;0.957
0.0254;0.956
0.0256;0.956
0.0258;0.956
0.026;0.956
0.0262;0.956
0.0264;0.956
0.0266;0.956
0.0268;0.956
0.027;0.956
0.0272;0.956
0.0274;0.956
0.0276;0.956
0.0278;0.956
0.028;0.956
0.0282;0.956
0.0284;0.956
0.0286;0.956
0.0288;0.956
0.029;0.955
0.0292;0.955
0.0294;0.955
0.0296;0.955
0.0298;0.955
0.03;0.955
0.0302;0.955
0.0304;0.955
0.0306;0.955
0.0308;0.955
0.031;0.955
0.0312;0.955
0.0314;0.955
0.0316;0.955
0.0318;0.955
0.032;0.955
0.0322;0.954
0.0324;0.954
0.0326;0.954
0.0328;0.954
0.033;0.954
0.0332;0.954
0.0334;0.954
0.0336;0.954
0.0338;0.954
0.034;0.954
0.0342;0.954
0.0344;0.954
0.0346;0.954
0.0348;0.954
0.035;0.953
0.0352;0.953
0.0354;0.953
0.0356;0.953
0.0358;0.953
0.036;0.953
0.0362;0.953
0.0364;0.953
0.0366;0.953
0.0368;0.953
0.037;0.953
0.0372;0.953
0.0374;0.952
0.0376;0.952
0.0378;0.952
0.038;0.952
0.0382;0.952
0.0384;0.952
0.0386;0.952
0.0388;0.952
0.039;0.952
0.0392;0.952
0.0394;0.952
0.0396;0.951
0.0398;0.951
0.04;0.951
0.0402;0.951
0.0404;0.951
0.0406;0.951
0.0408;0.951
0.041;0.951
0.0412;0.951
0.0414;0.95
0.0416;0.95
0.0418;0.95
0.042;0.95
0.0422;0.95
0.0424;0.95
0.0426;0.95
0.0428;0.95
0.043;0.95
0.0432;0.949
0.0434;0.949
0.0436;0.949
0.0438;0.949
0.044;0.949
0.0442;0.949
0.0444;0.949
0.0446;0.949
0.0448;0.949
0.045;0.948
0.0452;0.948
0.0454;0.948
0.0456;0.948
0.0458;0.948
0.046;0.948
0.0462;0.948
0.0464;0.947
0.0466;0.947
0.0468;0.947
0.047;0.947
0.0472;0.947
0.0474;0.947
0.0476;0.947
0.0478;0.947
0.048;0.946
0.0482;0.946
0.0484;0.946
0.0486;0.946
0.0488;0.946
0.049;0.946
0.0492;0.945
0.0494;0.945
0.0496;0.945
0.0498;0.945
0.05;0.945
0.0502;0.945
0.0504;0.944
0.0506;0.944
0.0508;0.944
0.051;0.944
0.0512;0.944
0.0514;0.944
0.0516;0.943
0.0518;0.943
0.052;0.943
0.0522;0.943
0.0524;0.943
0.0526;0.943
0.0528;0.942
0.053;0.942
0.0532;0.942
0.0534;0.942
0.0536;0.942
0.0538;0.941
0.054;0.941
0.0542;0.941
0.0544;0.941
0.0546;0.941
0.0548;0.94
0.055;0.94
0.0552;0.94
0.0554;0.94
0.0556;0.94
0.0558;0.939
0.056;0.939
0.0562;0.939
0.0564;0.939
0.0566;0.938
0.0568;0.938
0.057;0.938
0.0572;0.938
0.0574;0.937
0.0576;0.937
0.0578;0.937
0.058;0.937
0.0582;0.936
0.0584;0.936
0.0586;0.936
0.0588;0.936
0.059;0.935
0.0592;0.935
0.0594;0.935
0.0596;0.935
0.0598;0.934
0.06;0.934
0.0602;0.934
0.0604;0.933
0.0606;0.933
0.0608;0.933
0.061;0.933
0.0612;0.932
0.0614;0.932
0.0616;0.932
0.0618;0.931
0.062;0.931
0.0622;0.931
0.0624;0.93
0.0626;0.93
0.0628;0.93
0.063;0.929
0.0632;0.929
0.0634;0.929
0.0636;0.928
0.0638;0.928
0.064;0.928
0.0642;0.927
0.0644;0.927
0.0646;0.927
0.0648;0.926
0.065;0.926
0.0652;0.925
0.0654;0.925
0.0656;0.925
0.0658;0.924
0.066;0.924
0.0662;0.923
0.0664;0.923
0.0666;0.922
0.0668;0.922
0.067;0.922
0.0672;0.921
0.0674;0.921
0.0676;0.92
0.0678;0.92
0.068;0.919
0.0682;0.919
0.0684;0.918
0.0686;0.918
0.0688;0.917
0.069;0.917
0.0692;0.916
0.0694;0.916
0.0696;0.915
0.0698;0.915
0.07;0.914
0.0702;0.914
0.0704;0.913
0.0706;0.912
0.0708;0.912
0.071;0.911
0.0712;0.911
0.0714;0.91
0.0716;0.909
0.0718;0.909
0.072;0.908
0.0722;0.907
0.0724;0.907
0.0726;0.906
0.0728;0.905
0.073;0.905
0.0732;0.904
0.0734;0.903
0.0736;0.903
0.0738;0.902
0.074;0.901
0.0742;0.9
0.0744;0.899
0.0746;0.899
0.0748;0.898
0.075;0.897
0.0752;0.896
0.0754;0.895
0.0756;0.894
0.0758;0.894
0.076;0.893
0.0762;0.892
0.0764;0.891
0.0766;0.89
0.0768;0.889
0.077;0.888
0.0772;0.887
0.0774;0.886
0.0776;0.885
0.0778;0.884
0.078;0.882
0.0782;0.881
0.0784;0.88
0.0786;0.879
0.0788;0.878
0.079;0.877
0.0792;0.875
0.0794;0.874
0.0796;0.873
0.0798;0.871
0.08;0.87
0.0802;0.869
0.0804;0.867
0.0806;0.866
0.0808;0.864
0.081;0.863
0.0812;0.861
0.0814;0.86
0.0816;0.858
0.0818;0.856
0.082;0.855
0.0822;0.853
0.0824;0.851
0.0826;0.849
0.0828;0.847
0.083;0.845
0.0832;0.843
0.0834;0.841
0.0836;0.839
0.0838;0.837
0.084;0.835
0.0842;0.833
0.0844;0.831
0.0846;0.828
0.0848;0.826
0.085;0.823
0.0852;0.821
0.0854;0.818
0.0856;0.815
0.0858;0.813
0.086;0.81
0.0862;0.807
0.0864;0.804
0.0866;0.801
0.0868;0.798
0.087;0.794
0.0872;0.791
0.0874;0.788
0.0876;0.784
0.0878;0.78
0.088;0.777
0.0882;0.773
0.0884;0.769
0.0886;0.765
0.0888;0.76
0.089;0.756
0.0892;0.751
0.0894;0.747
0.0896;0.742
0.0898;0.737
0.09;0.731
0.0902;0.726
0.0904;0.72
0.0906;0.715
0.0908;0.709
0.091;0.703
0.0912;0.696
0.0914;0.69
0.0916;0.683
0.0918;0.676
0.092;0.668
0.0922;0.661
0.0924;0.653
0.0926;0.645
0.0928;0.636
0.093;0.627
0.0932;0.618
0.0934;0.609
0.0936;0.599
0.0938;0.589
0.094;0.578
0.0942;0.567
0.0944;0.556
0.0946;0.544
0.0948;0.532
0.095;0.519
0.0952;0.506
0.0954;0.492
0.0956;0.478
0.0958;0.463
0.096;0.448
0.0962;0.433
0.0964;0.417
0.0966;0.4
0.0968;0.383
0.097;0.365
0.0972;0.347
0.0974;0.329
0.0976;0.31
0.0978;0.29
0.098;0.271
0.0982;0.251
0.0984;0.231
0.0986;0.211
0.0988;0.191
0.099;0.171
0.0992;0.151
0.0994;0.132
0.0996;0.113
0.0998;0.096
0.1;0.079
