energy;conductance
-0.1;1.0
-0.0998;1.0
-0.0996;1.0
-0.0994;1.0
-0.0992;1.0
-0.099;1.0
-0.0988;1.0
-0.0986;1.0
-0.0984;1.0
-0.0982;1.0
-0.098;1.0
-0.0978;1.0
-0.0976;1.0
-0.0974;1.0
-0.0972;1.0
-0.097;1.0
-0.0968;1.0
-0.0966;1.0
-0.0964;1.0
-0.0962;1.0
-0.096;1.0
-0.0958;1.0
-0.0956;1.0
-0.0954;1.0
-0.0952;1.0
-0.095;1.0
-0.0948;1.0
-0.0946;1.0
-0.0944;1.0
-0.0942;1.0
-0.094;1.0
-0.0938;1.0
-0.0936;1.0
-0.0934;1.0
-0.0932;1.0
-0.093;1.0
-0.0928;1.0
-0.0926;1.0
-0.0924;1.0
-0.0922;1.0
-0.092;1.0
-0.0918;1.0
-0.0916;1.0
-0.0914;1.0
-0.0912;1.0
-0.091;1.0
-0.0908;1.0
-0.0906;0.999
-0.0904;0.999
-0.0902;0.999
-0.09;0.999
-0.0898;0.999
-0.0896;0.999
-0.0894;0.999
-0.0892;0.999
-0.089;0.999
-0.0888;0.999
-0.0886;0.999
-0.0884;0.999
-0.0882;0.999
-0.088;0.999
-0.0878;0.999
-0.0876;0.999
-0.0874;0.998
-0.0872;0.998
-0.087;0.998
-0.0868;0.998
-0.0866;0.998
-0.0864;0.998
-0.0862;0.998
-0.086;0.998
-0.0858;0.997
-0.0856;0.997
-0.0854;0.997
-0.0852;0.997
-0.085;0.997
-0.0848;0.997
-0.0846;0.996
-0.0844;0.996
-0.0842;0.996
-0.084;0.996
-0.0838;0.995
-0.0836;0.995
-0.0834;0.995
-0.0832;0.994
-0.083;0.994
-0.0828;0.994
-0.0826;0.993
-0.0824;0.993
-0.0822;0.992
-0.082;0.992
-0.0818;0.991
-0.0816;0.991
-0.0814;0.99
-0.0812;0.99
-0.081;0.989
-0.0808;0.988
-0.0806;0.987
-0.0804;0.987
-0.0802;0.986
-0.08;0.985
-0.0798;0.983
-0.0796;0.982
-0.0794;0.981
-0.0792;0.979
-0.079;0.978
-0.0788;0.976
-0.0786;0.974
-0.0784;0.972
-0.0782;0.97
-0.078;0.968
-0.0778;0.965
-0.0776;0.962
-0.0774;0.959
-0.0772;0.955
-0.077;0.951
-0.0768;0.946
-0.0766;0.941
-0.0764;0.935
-0.0762;0.928
-0.076;0.921
-0.0758;0.912
-0.0756;0.903
-0.0754;0.892
-0.0752;0.879
-0.075;0.864
-0.0748;0.847
-0.0746;0.827
-0.0744;0.803
-0.0742;0.775
-0.074;0.743
-0.0738;0.704
-0.0736;0.659
-0.0734;0.606
-0.0732;0.544
-0.073;0.472
-0.0728;0.391
-0.0726;0.303
-0.0724;0.213
-0.0722;0.128
-0.072;0.058
-0.0718;0.013
-0.0716;0.0
-0.0714;0.021
-0.0712;0.069
-0.071;0.136
-0.0708;0.213
-0.0706;0.292
-0.0704;0.367
-0.0702;0.437
-0.07;0.498
-0.0698;0.553
-0.0696;0.6
-0.0694;0.641
-0.0692;0.677
-0.069;0.708
-0.0688;0.734
-0.0686;0.758
-0.0684;0.778
-0.0682;0.796
-0.068;0.812
-0.0678;0.826
-0.0676;0.838
-0.0674;0.849
-0.0672;0.859
-0.067;0.868
-0.0668;0.876
-0.0666;0.883
-0.0664;0.89
-0.0662;0.896
-0.066;0.901
-0.0658;0.906
-0.0656;0.911
-0.0654;0.915
-0.0652;0.919
-0.065;0.923
-0.0648;0.926
-0.0646;0.929
-0.0644;0.932
-0.0642;0.935
-0.064;0.937
-0.0638;0.939
-0.0636;0.942
-0.0634;0.944
-0.0632;0.946
-0.063;0.947
-0.0628;0.949
-0.0626;0.951
-0.0624;0.952
-0.0622;0.954
-0.062;0.955
-0.0618;0.956
-0.0616;0.957
-0.0614;0.959
-0.0612;0.96
-0.061;0.961
-0.0608;0.962
-0.0606;0.963
-0.0604;0.964
-0.0602;0.964
-0.06;0.965
-0.0598;0.966
-0.0596;0.967
-0.0594;0.967
-0.0592;0.968
-0.059;0.969
-0.0588;0.969
-0.0586;0.97
-0.0584;0.971
-0.0582;0.971
-0.058;0.972
-0.0578;0.972
-0.0576;0.973
-0.0574;0.973
-0.0572;0.974
-0.057;0.974
-0.0568;0.975
-0.0566;0.975
-0.0564;0.975
-0.0562;0.976
-0.056;0.976
-0.0558;0.977
-0.0556;0.977
-0.0554;0.977
-0.0552;0.978
-0.055;0.978
-0.0548;0.978
-0.0546;0.979
-0.0544;0.979
-0.0542;0.979
-0.054;0.979
-0.0538;0.98
-0.0536;0.98
-0.0534;0.98
-0.0532;0.98
-0.053;0.981
-0.0528;0.981
-0.0526;0.981
-0.0524;0.981
-0.0522;0.982
-0.052;0.982
-0.0518;0.982
-0.0516;0.982
-0.0514;0.982
-0.0512;0.983
-0.051;0.983
-0.0508;0.983
-0.0506;0.983
-0.0504;0.983
-0.0502;0.983
-0.05;0.984
-0.0498;0.984
-0.0496;0.984
-0.0494;0.984
-0.0492;0.984
-0.049;0.984
-0.0488;0.985
-0.0486;0.985
-0.0484;0.985
-0.0482;0.985
-0.048;0.985
-0.0478;0.985
-0.0476;0.985
-0.0474;0.985
-0.0472;0.986
-0.047;0.986
-0.0468;0.986
-0.0466;0.986
-0.0464;0.986
-0.0462;0.986
-0.046;0.986
-0.0458;0.986
-0.0456;0.986
-0.0454;0.987
-0.0452;0.987
-0.045;0.987
-0.0448;0.987
-0.0446;0.987
-0.0444;0.987
-0.0442;0.987
-0.044;0.987
-0.0438;0.987
-0.0436;0.987
-0.0434;0.987
-0.0432;0.988
-0.043;0.988
-0.0428;0.988
-0.0426;0.988
-0.0424;0.988
-0.0422;0.988
-0.042;0.988
-0.0418;0.988
-0.0416;0.988
-0.0414;0.988
-0.0412;0.988
-0.041;0.988
-0.0408;0.988
-0.0406;0.988
-0.0404;0.989
-0.0402;0.989
-0.04;0.989
-0.0398;0.989
-0.0396;0.989
-0.0394;0.989
-0.0392;0.989
-0.039;0.989
-0.0388;0.989
-0.0386;0.989
-0.0384;0.989
-0.0382;0.989
-0.038;0.989
-0.0378;0.989
-0.0376;0.989
-0.0374;0.989
-0.0372;0.989
-0.037;0.989
-0.0368;0.99
-0.0366;0.99
-0.0364;0.99
-0.0362;0.99
-0.036;0.99
-0.0358;0.99
-0.0356;0.99
-0.0354;0.99
-0.0352;0.99
-0.035;0.99
-0.0348;0.99
-0.0346;0.99
-0.0344;0.99
-0.0342;0.99
-0.034;0.99
-0.0338;0.99
-0.0336;0.99
-0.0334;0.99
-0.0332;0.99
-0.033;0.99
-0.0328;0.99
-0.0326;0.99
-0.0324;0.99
-0.0322;0.991
-0.032;0.991
-0.0318;0.991
-0.0316;0.991
-0.0314;0.991
-0.0312;0.991
-0.031;0.991
-0.0308;0.991
-0.0306;0.991
-0.0304;0.991
-0.0302;0.991
-0.03;0.991
-0.0298;0.991
-0.0296;0.991
-0.0294;0.991
-0.0292;0.991
-0.029;0.991
-0.0288;0.991
-0.0286;0.991
-0.0284;0.991
-0.0282;0.991
-0.028;0.991
-0.0278;0.991
-0.0276;0.991
-0.0274;0.991
-0.0272;0.991
-0.027;0.991
-0.0268;0.991
-0.0266;0.991
-0.0264;0.991
-0.0262;0.991
-0.026;0.991
-0.0258;0.991
-0.0256;0.992
-0.0254;0.992
-0.0252;0.992
-0.025;0.992
-0.0248;0.992
-0.0246;0.992
-0.0244;0.992
-0.0242;0.992
-0.024;0.992
-0.0238;0.992
-0.0236;0.992
-0.0234;0.992
-0.0232;0.992
-0.023;0.992
-0.0228;0.992
-0.0226;0.992
-0.0224;0.992
-0.0222;0.992
-0.022;0.992
-0.0218;0.992
-0.0216;0.992
-0.0214;0.992
-0.0212;0.992
-0.021;0.992
-0.0208;0.992
-0.0206;0.992
-0.0204;0.992
-0.0202;0.992
-0.02;0.992
-0.0198;0.992
-0.0196;0.992
-0.0194;0.992
-0.0192;0.992
-0.019;0.992
-0.0188;0.992
-0.0186;0.992
-0.0184;0.992
-0.0182;0.992
-0.018;0.992
-0.0178;0.992
-0.0176;0.992
-0.0174;0.993
-0.0172;0.993
-0.017;0.993
-0.0168;0.993
-0.0166;0.993
-0.0164;0.993
-0.0162;0.993
-0.016;0.993
-0.0158;0.993
-0.0156;0.993
-0.0154;0.993
-0.0152;0.993
-0.015;0.993
-0.0148;0.993
-0.0146;0.993
-0.0144;0.993
-0.0142;0.993
-0.014;0.993
-0.0138;0.993
-0.0136;0.993
-0.0134;0.993
-0.0132;0.993
-0.013;0.993
-0.0128;0.993
-0.0126;0.993
-0.0124;0.993
-0.0122;0.994
-0.012;0.994
-0.0118;0.994
-0.0116;0.994
-0.0114;0.994
-0.0112;0.994
-0.011;0.994
-0.0108;0.994
-0.0106;0.994
-0.0104;0.994
-0.0102;0.994
-0.01;0.994
-0.0098;0.995
-0.0096;0.995
-0.0094;0.995
-0.0092;0.995
-0.009;0.995
-0.0088;0.995
-0.0086;0.995
-0.0084;0.996
-0.0082;0.996
-0.008;0.996
-0.0078;0.996
-0.0076;0.997
-0.0074;0.997
-0.0072;0.998
-0.007;0.998
-0.0068;0.999
-0.0066;0.999
-0.0064;1.0
-0.0062;1.0
-0.006;1.0
-0.0058;0.998
-0.0056;0.989
-0.0054;0.939
-0.0052;0.414
-0.005;0.569
-0.0048;0.865
-0.0046;0.926
-0.0044;0.949
-0.0042;0.961
-0.004;0.967
-0.0038;0.971
-0.0036;0.974
-0.0034;0.977
-0.0032;0.978
-0.003;0.979
-0.0028;0.98
-0.0026;0.981
-0.0024;0.982
-0.0022;0.982
-0.002;0.983
-0.0018;0.983
-0.0016;0.984
-0.0014;0.984
-0.0012;0.984
-0.001;0.984
-0.0008;0.984
-0.0006;0.984
-0.0004;0.984
-0.0002;0.985
0.0;0.985
0.0002;0.985
0.0004;0.984
0.0006;0.984
0.0008;0.984
0.001;0.984
0.0012;0.984
0.0014;0.984
0.0016;0.984
0.0018;0.983
0.002;0.983
0.0022;0.982
0.0024;0.982
0.0026;0.981
0.0028;0.98
0.003;0.979
0.0032;0.978
0.0034;0.977
0.0036;0.974
0.0038;0.971
0.004;0.967
0.0042;0.961
0.0044;0.949
0.0046;0.926
0.0048;0.865
0.005;0.569
0.0052;0.414
0.0054;0.939
0.0056;0.989
0.0058;0.998
0.006;1.0
0.0062;1.0
0.0064;1.0
0.0066;0.999
0.0068;0.999
0.007;0.998
0.0072;0.998
0.0074;0.997
0.0076;0.997
0.0078;0.996
0.008;0.996
0.0082;0.996
0.0084;0.996
0.0086;0.995
0.0088;0.995
0.009;0.995
0.0092;0.995
0.0094;0.995
0.0096;0.995
0.0098;0.995
0.01;0.994
0.0102;0.994
0.0104;0.994
0.0106;0.994
0.0108;0.994
0.011;0.994
0.0112;0.994
0.0114;0.994
0.0116;0.994
0.0118;0.994
0.012;0.994
0.0122;0.994
0.0124;0.993
0.0126;0.993
0.0128;0.993
0.013;0.993
0.0132;0.993
0.0134;0.993
0.0136;0.993
0.0138;0.993
0.014;0.993
0.0142;0.993
0.0144;0.993
0.0146;0.993
0.0148;0.993
0.015;0.993
0.0152;0.993
0.0154;0.993
0.0156;0.993
0.0158;0.993
0.016;0.993
0.0162;0.993
0.0164;0.993
0.0166;0.993
0.0168;0.993
0.017;0.993
0.0172;0.993
0.0174;0.993
0.0176;0.992
0.0178;0.992
0.018;0.992
0.0182;0.992
0.0184;0.992
0.0186;0.992
0.0188;0.992
0.019;0.992
0.0192;0.992
0.0194;0.992
0.0196;0.992
0.0198;0.992
0.02;0.992
0.0202;0.992
0.0204;0.992
0.0206;0.992
0.0208;0.992
0.021;0.992
0.0212;0.992
0.0214;0.992
0.0216;0.992
0.0218;0.992
0.022;0.992
0.0222;0.992
0.0224;0.992
0.0226;0.992
0.0228;0.992
0.023;0.992
0.0232;0.992
0.0234;0.992
0.0236;0.992
0.0238;0.992
0.024;0.992
0.0242;0.992
0.0244;0.992
0.0246;0.992
0.0248;0.992
0.025;0.992
0.0252;0.992
0.0254;0.992
0.0256;0.992
0.0258;0.991
0.026;0.991
0.0262;0.991
0.0264;0.991
0.0266;0.991
0.0268;0.991
0.027;0.991
0.0272;0.991
0.0274;0.991
0.0276;0.991
0.0278;0.991
0.028;0.991
0.0282;0.991
0.0284;0.991
0.0286;0.991
0.0288;0.991
0.029;0.991
0.0292;0.991
0.0294;0.991
0.0296;0.991
0.0298;0.991
0.03;0.991
0.0302;0.991
0.0304;0.991
0.0306;0.991
0.0308;0.991
0.031;0.991
0.0312;0.991
0.0314;0.991
0.0316;0.991
0.0318;0.991
0.032;0.991
0.0322;0.991
0.0324;0.99
0.0326;0.99
0.0328;0.99
0.033;0.99
0.0332;0.99
0.0334;0.99
0.0336;0.99
0.0338;0.99
0.034;0.99
0.0342;0.99
0.0344;0.99
0.0346;0.99
0.0348;0.99
0.035;0.99
0.0352;0.99
0.0354;0.99
0.0356;0.99
0.0358;0.99
0.036;0.99
0.0362;0.99
0.0364;0.99
0.0366;0.99
0.0368;0.99
0.037;0.989
0.0372;0.989
0.0374;0.989
0.0376;0.989
0.0378;0.989
0.038;0.989
0.0382;0.989
0.0384;0.989
0.0386;0.989
0.0388;0.989
0.039;0.989
0.0392;0.989
0.0394;0.989
0.0396;0.989
0.0398;0.989
0.04;0.989
0.0402;0.989
0.0404;0.989
0.0406;0.988
0.0408;0.988
0.041;0.988
0.0412;0.988
0.0414;0.988
0.0416;0.988
0.0418;0.988
0.042;0.988
0.0422;0.988
0.0424;0.988
0.0426;0.988
0.0428;0.988
0.043;0.988
0.0432;0.988
0.0434;0.987
0.0436;0.987
0.0438;0.987
0.044;0.987
0.0442;0.987
0.0444;0.987
0.0446;0.987
0.0448;0.987
0.045;0.987
0.0452;0.987
0.0454;0.987
0.0456;0.986
0.0458;0.986
0.046;0.986
0.0462;0.986
0.0464;0.986
0.0466;0.986
0.0468;0.986
0.047;0.986
0.0472;0.986
0.0474;0.985
0.0476;0.985
0.0478;0.985
0.048;0.985
0.0482;0.985
0.0484;0.985
0.0486;0.985
0.0488;0.985
0.049;0.984
0.0492;0.984
0.0494;0.984
0.0496;0.984
0.0498;0.984
0.05;0.984
0.0502;0.983
0.0504;0.983
0.0506;0.983
0.0508;0.983
0.051;0.983
0.0512;0.983
0.0514;0.982
0.0516;0.982
0.0518;0.982
0.052;0.982
0.0522;0.982
0.0524;0.981
0.0526;0.981
0.0528;0.981
0.053;0.981
0.0532;0.98
0.0534;0.98
0.0536;0.98
0.0538;0.98
0.054;0.979
0.0542;0.979
0.0544;0.979
0.0546;0.979
0.0548;0.978
0.055;0.978
0.0552;0.978
0.0554;0.977
0.0556;0.977
0.0558;0.977
0.056;0.976
0.0562;0.976
0.0564;0.975
0.0566;0.975
0.0568;0.975
0.057;0.974
0.0572;0.974
0.0574;0.973
0.0576;0.973
0.0578;0.972
0.058;0.972
0.0582;0.971
0.0584;0.971
0.0586;0.97
0.0588;0.969
0.059;0.969
0.0592;0.968
0.0594;0.967
0.0596;0.967
0.0598;0.966
0.06;0.965
0.0602;0.964
0.0604;0.964
0.0606;0.963
0.0608;0.962
0.061;0.961
0.0612;0.96
0.0614;0.959
0.0616;0.957
0.0618;0.956
0.062;0.955
0.0622;0.954
0.0624;0.952
0.0626;0.951
0.0628;0.949
0.063;0.947
0.0632;0.946
0.0634;0.944
0.0636;0.942
0.0638;0.939
0.064;0.937
0.0642;0.935
0.0644;0.932
0.0646;0.929
0.0648;0.926
0.065;0.923
0.0652;0.919
0.0654;0.915
0.0656;0.911
0.0658;0.906
0.066;0.901
0.0662;0.896
0.0664;0.89
0.0666;0.883
0.0668;0.876
0.067;0.868
0.0672;0.859
0.0674;0.849
0.0676;0.838
0.0678;0.826
0.068;0.812
0.0682;0.796
0.0684;0.778
0.0686;0.758
0.0688;0.734
0.069;0.708
0.0692;0.677
0.0694;0.641
0.0696;0.6
0.0698;0.553
0.07;0.498
0.0702;0.437
0.0704;0.367
0.0706;0.292
0.0708;0.213
0.071;0.136
0.0712;0.069
0.0714;0.021
0.0716;0.0
0.0718;0.013
0.072;0.058
0.0722;0.128
0.0724;0.213
0.0726;0.303
0.0728;0.391
0.073;0.472
0.0732;0.544
0.0734;0.606
0.0736;0.659
0.0738;0.704
0.074;0.743
0.0742;0.775
0.0744;0.803
0.0746;0.827
0.0748;0.847
0.075;0.864
0.0752;0.879
0.0754;0.892
0.0756;0.903
0.0758;0.912
0.076;0.921
0.0762;0.928
0.0764;0.935
0.0766;0.941
0.0768;0.946
0.077;0.951
0.0772;0.955
0.0774;0.959
0.0776;0.962
0.0778;0.965
0.078;0.968
0.0782;0.97
0.0784;0.972
0.0786;0.974
0.0788;0.976
0.079;0.978
0.0792;0.979
0.0794;0.981
0.0796;0.982
0.0798;0.983
0.08;0.985
0.0802;0.986
0.0804;0.987
0.0806;0.987
0.0808;0.988
0.081;0.989
0.0812;0.99
0.0814;0.99
0.0816;0.991
0.0818;0.991
0.082;0.992
0.0822;0.992
0.0824;0.993
0.0826;0.993
0.0828;0.994
0.083;0.994
0.0832;0.994
0.0834;0.995
0.0836;0.995
0.0838;0.995
0.084;0.996
0.0842;0.996
0.0844;0.996
0.0846;0.996
0.0848;0.997
0.085;0.997
0.0852;0.997
0.0854;0.997
0.0856;0.997
0.0858;0.997
0.086;0.998
0.0862;0.998
0.0864;0.998
0.0866;0.998
0.0868;0.998
0.087;0.998
0.0872;0.998
0.0874;0.998
0.0876;0.999
0.0878;0.999
0.088;0.999
0.0882;0.999
0.0884;0.999
0.0886;0.999
0.0888;0.999
0.089;0.999
0.0892;0.999
0.0894;0.999
0.0896;0.999
0.0898;0.999
0.09;0.999
0.0902;0.999
0.0904;0.999
0.0906;0.999
0.0908;1.0
0.091;1.0
0.0912;1.0
0.0914;1.0
0.0916;1.0
0.0918;1.0
0.092;1.0
0.0922;1.0
0.0924;1.0
0.0926;1.0
0.0928;1.0
0.093;1.0
0.0932;1.0
0.0934;1.0
0.0936;1.0
0.0938;1.0
0.094;1.0
0.0942;1.0
0.0944;1.0
0.0946;1.0
0.0948;1.0
0.095;1.0
0.0952;1.0
0.0954;1.0
0.0956;1.0
0.0958;1.0
0.096;1.0
0.0962;1.0
0.0964;1.0
0.0966;1.0
0.0968;1.0
0.097;1.0
0.0972;1.0
0.0974;1.0
0.0976;1.0
0.0978;1.0
0.098;1.0
0.0982;1.0
0.0984;1.0
0.0986;1.0
0.0988;1.0
0.099;1.0
0.0992;1.0
0.0994;1.0
0.0996;1.0
0.0998;1.0
0.1;1.0
