energy;conductance
-0.1;0.244
-0.0998;0.262
-0.0996;0.28
-0.0994;0.297
-0.0992;0.315
-0.099;0.332
-0.0988;0.349
-0.0986;0.366
-0.0984;0.382
-0.0982;0.398
-0.098;0.414
-0.0978;0.429
-0.0976;0.443
-0.0974;0.458
-0.0972;0.472
-0.097;0.485
-0.0968;0.498
-0.0966;0.511
-0.0964;0.523
-0.0962;0.535
-0.096;0.547
-0.0958;0.558
-0.0956;0.569
-0.0954;0.579
-0.0952;0.589
-0.095;0.599
-0.0948;0.608
-0.0946;0.618
-0.0944;0.626
-0.0942;0.635
-0.094;0.643
-0.0938;0.651
-0.0936;0.659
-0.0934;0.667
-0.0932;0.674
-0.093;0.681
-0.0928;0.688
-0.0926;0.694
-0.0924;0.701
-0.0922;0.707
-0.092;0.713
-0.0918;0.719
-0.0916;0.724
-0.0914;0.73
-0.0912;0.735
-0.091;0.74
-0.0908;0.745
-0.0906;0.75
-0.0904;0.754
-0.0902;0.759
-0.09;0.763
-0.0898;0.768
-0.0896;0.772
-0.0894;0.776
-0.0892;0.78
-0.089;0.783
-0.0888;0.787
-0.0886;0.791
-0.0884;0.794
-0.0882;0.798
-0.088;0.801
-0.0878;0.804
-0.0876;0.807
-0.0874;0.81
-0.0872;0.813
-0.087;0.816
-0.0868;0.819
-0.0866;0.822
-0.0864;0.824
-0.0862;0.827
-0.086;0.829
-0.0858;0.832
-0.0856;0.834
-0.0854;0.837
-0.0852;0.839
-0.085;0.841
-0.0848;0.843
-0.0846;0.846
-0.0844;0.848
-0.0842;0.85
-0.084;0.852
-0.0838;0.854
-0.0836;0.855
-0.0834;0.857
-0.0832;0.859
-0.083;0.861
-0.0828;0.863
-0.0826;0.864
-0.0824;0.866
-0.0822;0.868
-0.082;0.869
-0.0818;0.871
-0.0816;0.872
-0.0814;0.874
-0.0812;0.875
-0.081;0.876
-0.0808;0.878
-0.0806;0.879
-0.0804;0.881
-0.0802;0.882
-0.08;0.883
-0.0798;0.884
-0.0796;0.886
-0.0794;0.887
-0.0792;0.888
-0.079;0.889
-0.0788;0.89
-0.0786;0.891
-0.0784;0.893
-0.0782;0.894
-0.078;0.895
-0.0778;0.896
-0.0776;0.897
-0.0774;0.898
-0.0772;0.899
-0.077;0.9
-0.0768;0.901
-0.0766;0.901
-0.0764;0.902
-0.0762;0.903
-0.076;0.904
-0.0758;0.905
-0.0756;0.906
-0.0754;0.907
-0.0752;0.907
-0.075;0.908
-0.0748;0.909
-0.0746;0.91
-0.0744;0.911
-0.0742;0.911
-0.074;0.912
-0.0738;0.913
-0.0736;0.914
-0.0734;0.914
-0.0732;0.915
-0.073;0.916
-0.0728;0.916
-0.0726;0.917
-0.0724;0.918
-0.0722;0.918
-0.072;0.919
-0.0718;0.919
-0.0716;0.92
-0.0714;0.921
-0.0712;0.921
-0.071;0.922
-0.0708;0.922
-0.0706;0.923
-0.0704;0.923
-0.0702;0.924
-0.07;0.925
-0.0698;0.925
-0.0696;0.926
-0.0694;0.926
-0.0692;0.927
-0.069;0.927
-0.0688;0.928
-0.0686;0.928
-0.0684;0.929
-0.0682;0.929
-0.068;0.93
-0.0678;0.93
-0.0676;0.93
-0.0674;0.931
-0.0672;0.931
-0.067;0.932
-0.0668;0.932
-0.0666;0.933
-0.0664;0.933
-0.0662;0.933
-0.066;0.934
-0.0658;0.934
-0.0656;0.935
-0.0654;0.935
-0.0652;0.935
-0.065;0.936
-0.0648;0.936
-0.0646;0.936
-0.0644;0.937
-0.0642;0.937
-0.064;0.938
-0.0638;0.938
-0.0636;0.938
-0.0634;0.939
-0.0632;0.939
-0.063;0.939
-0.0628;0.94
-0.0626;0.94
-0.0624;0.94
-0.0622;0.941
-0.062;0.941
-0.0618;0.941
-0.0616;0.941
-0.0614;0.942
-0.0612;0.942
-0.061;0.942
-0.0608;0.943
-0.0606;0.943
-0.0604;0.943
-0.0602;0.944
-0.06;0.944
-0.0598;0.944
-0.0596;0.944
-0.0594;0.945
-0.0592;0.945
-0.059;0.945
-0.0588;0.945
-0.0586;0.946
-0.0584;0.946
-0.0582;0.946
-0.058;0.946
-0.0578;0.947
-0.0576;0.947
-0.0574;0.947
-0.0572;0.947
-0.057;0.948
-0.0568;0.948
-0.0566;0.948
-0.0564;0.948
-0.0562;0.948
-0.056;0.949
-0.0558;0.949
-0.0556;0.949
-0.0554;0.949
-0.0552;0.95
-0.055;0.95
-0.0548;0.95
-0.0546;0.95
-0.0544;0.95
-0.0542;0.951
-0.054;0.951
-0.0538;0.951
-0.0536;0.951
-0.0534;0.951
-0.0532;0.952
-0.053;0.952
-0.0528;0.952
-0.0526;0.952
-0.0524;0.952
-0.0522;0.952
-0.052;0.953
-0.0518;0.953
-0.0516;0.953
-0.0514;0.953
-0.0512;0.953
-0.051;0.954
-0.0508;0.954
-0.0506;0.954
-0.0504;0.954
-0.0502;0.954
-0.05;0.954
-0.0498;0.955
-0.0496;0.955
-0.0494;0.955
-0.0492;0.955
-0.049;0.955
-0.0488;0.955
-0.0486;0.955
-0.0484;0.956
-0.0482;0.956
-0.048;0.956
-0.0478;0.956
-0.0476;0.956
-0.0474;0.956
-0.0472;0.956
-0.047;0.957
-0.0468;0.957
-0.0466;0.957
-0.0464;0.957
-0.0462;0.957
-0.046;0.957
-0.0458;0.957
-0.0456;0.958
-0.0454;0.958
-0.0452;0.958
-0.045;0.958
-0.0448;0.958
-0.0446;0.958
-0.0444;0.958
-0.0442;0.958
-0.044;0.959
-0.0438;0.959
-0.0436;0.959
-0.0434;0.959
-0.0432;0.959
-0.043;0.959
-0.0428;0.959
-0.0426;0.959
-0.0424;0.96
-0.0422;0.96
-0.042;0.96
-0.0418;0.96
-0.0416;0.96
-0.0414;0.96
-0.0412;0.96
-0.041;0.96
-0.0408;0.96
-0.0406;0.961
-0.0404;0.961
-0.0402;0.961
-0.04;0.961
-0.0398;0.961
-0.0396;0.961
-0.0394;0.961
-0.0392;0.961
-0.039;0.961
-0.0388;0.961
-0.0386;0.962
-0.0384;0.962
-0.0382;0.962
-0.038;0.962
-0.0378;0.962
-0.0376;0.962
-0.0374;0.962
-0.0372;0.962
-0.037;0.962
-0.0368;0.962
-0.0366;0.962
-0.0364;0.963
-0.0362;0.963
-0.036;0.963
-0.0358;0.963
-0.0356;0.963
-0.0354;0.963
-0.0352;0.963
-0.035;0.963
-0.0348;0.963
-0.0346;0.963
-0.0344;0.963
-0.0342;0.964
-0.034;0.964
-0.0338;0.964
-0.0336;0.964
-0.0334;0.964
-0.0332;0.964
-0.033;0.964
-0.0328;0.964
-0.0326;0.964
-0.0324;0.964
-0.0322;0.964
-0.032;0.964
-0.0318;0.965
-0.0316;0.965
-0.0314;0.965
-0.0312;0.965
-0.031;0.965
-0.0308;0.965
-0.0306;0.965
-0.0304;0.965
-0.0302;0.965
-0.03;0.965
-0.0298;0.965
-0.0296;0.965
-0.0294;0.965
-0.0292;0.966
-0.029;0.966
-0.0288;0.966
-0.0286;0.966
-0.0284;0.966
-0.0282;0.966
-0.028;0.966
-0.0278;0.966
-0.0276;0.966
-0.0274;0.966
-0.0272;0.966
-0.027;0.966
-0.0268;0.966
-0.0266;0.967
-0.0264;0.967
-0.0262;0.967
-0.026;0.967
-0.0258;0.967
-0.0256;0.967
-0.0254;0.967
-0.0252;0.967
-0.025;0.967
-0.0248;0.967
-0.0246;0.967
-0.0244;0.967
-0.0242;0.968
-0.024;0.968
-0.0238;0.968
-0.0236;0.968
-0.0234;0.968
-0.0232;0.968
-0.023;0.968
-0.0228;0.968
-0.0226;0.968
-0.0224;0.968
-0.0222;0.968
-0.022;0.968
-0.0218;0.969
-0.0216;0.969
-0.0214;0.969
-0.0212;0.969
-0.021;0.969
-0.0208;0.969
-0.0206;0.969
-0.0204;0.969
-0.0202;0.969
-0.02;0.969
-0.0198;0.969
-0.0196;0.97
-0.0194;0.97
-0.0192;0.97
-0.019;0.97
-0.0188;0.97
-0.0186;0.97
-0.0184;0.97
-0.0182;0.97
-0.018;0.97
-0.0178;0.971
-0.0176;0.971
-0.0174;0.971
-0.0172;0.971
-0.017;0.971
-0.0168;0.971
-0.0166;0.971
-0.0164;0.972
-0.0162;0.972
-0.016;0.972
-0.0158;0.972
-0.0156;0.972
-0.0154;0.972
-0.0152;0.973
-0.015;0.973
-0.0148;0.973
-0.0146;0.973
-0.0144;0.973
-0.0142;0.974
-0.014;0.974
-0.0138;0.974
-0.0136;0.974
-0.0134;0.975
-0.0132;0.975
-0.013;0.975
-0.0128;0.975
-0.0126;0.976
-0.0124;0.976
-0.0122;0.977
-0.012;0.977
-0.0118;0.977
-0.0116;0.978
-0.0114;0.978
-0.0112;0.979
-0.011;0.979
-0.0108;0.98
-0.0106;0.98
-0.0104;0.981
-0.0102;0.982
-0.01;0.982
-0.0098;0.983
-0.0096;0.984
-0.0094;0.985
-0.0092;0.986
-0.009;0.987
-0.0088;0.988
-0.0086;0.99
-0.0084;0.991
-0.0082;0.993
-0.008;0.994
-0.0078;0.996
-0.0076;0.998
-0.0074;0.999
-0.0072;1.0
-0.007;0.999
-0.0068;0.996
-0.0066;0.984
-0.0064;0.952
-0.0062;0.858
-0.006;0.58
-0.0058;0.07
-0.0056;0.133
-0.0054;0.449
-0.0052;0.631
-0.005;0.727
-0.0048;0.783
-0.0046;0.819
-0.0044;0.843
-0.0042;0.86
-0.004;0.873
-0.0038;0.883
-0.0036;0.89
-0.0034;0.897
-0.0032;0.902
-0.003;0.906
-0.0028;0.909
-0.0026;0.912
-0.0024;0.914
-0.0022;0.917
-0.002;0.918
-0.0018;0.92
-0.0016;0.921
-0.0014;0.922
-0.0012;0.923
-0.001;0.924
-0.0008;0.924
-0.0006;0.925
-0.0004;0.925
-0.0002;0.925
0.0;0.925
0.0002;0.925
0.0004;0.925
0.0006;0.925
0.0008;0.924
0.001;0.924
0.0012;0.923
0.0014;0.922
0.0016;0.921
0.0018;0.92
0.002;0.918
0.0022;0.917
0.0024;0.914
0.0026;0.912
0.0028;0.909
0.003;0.906
0.0032;0.902
0.0034;0.897
0.0036;0.89
0.0038;0.883
0.004;0.873
0.0042;0.86
0.0044;0.843
0.0046;0.819
0.0048;0.783
0.005;0.727
0.0052;0.631
0.0054;0.449
0.0056;0.133
0.0058;0.07
0.006;0.58
0.0062;0.858
0.0064;0.952
0.0066;0.984
0.0068;0.996
0.007;0.999
0.0072;1.0
0.0074;0.999
0.0076;0.998
0.0078;0.996
0.008;0.994
0.0082;0.993
0.0084;0.991
0.0086;0.99
0.0088;0.988
0.009;0.987
0.0092;0.986
0.0094;0.985
0.0096;0.984
0.0098;0.983
0.01;0.982
0.0102;0.982
0.0104;0.981
0.0106;0.98
0.0108;0.98
0.011;0.979
0.0112;0.979
0.0114;0.978
0.0116;0.978
0.0118;0.977
0.012;0.977
0.0122;0.977
0.0124;0.976
0.0126;0.976
0.0128;0.975
0.013;0.975
0.0132;0.975
0.0134;0.975
0.0136;0.974
0.0138;0.974
0.014;0.974
0.0142;0.974
0.0144;0.973
0.0146;0.973
0.0148;0.973
0.015;0.973
0.0152;0.973
0.0154;0.972
0.0156;0.972
0.0158;0.972
0.016;0.972
0.0162;0.972
0.0164;0.972
0.0166;0.971
0.0168;0.971
0.017;0.971
0.0172;0.971
0.0174;0.971
0.0176;0.971
0.0178;0.971
0.018;0.97
0.0182;0.97
0.0184;0.97
0.0186;0.97
0.0188;0.97
0.019;0.97
0.0192;0.97
0.0194;0.97
0.0196;0.97
0.0198;0.969
0.02;0.969
0.0202;0.969
0.0204;0.969
0.0206;0.969
0.0208;0.969
0.021;0.969
0.0212;0.969
0.0214;0.969
0.0216;0.969
0.0218;0.969
0.022;0.968
0.0222;0.968
0.0224;0.968
0.0226;0.968
0.0228;0.968
0.023;0.968
0.0232;0.968
0.0234;0.968
0.0236;0.968
0.0238;0.968
0.024;0.968
0.0242;0.968
0.0244;0.967
0.0246;0.967
0.0248;0.967
0.025;0.967
0.0252;0.967
0.0254;0.967
0.0256;0.967
0.0258;0.967
0.026;0.967
0.0262;0.967
0.0264;0.967
0.0266;0.967
0.0268;0.966
0.027;0.966
0.0272;0.966
0.0274;0.966
0.0276;0.966
0.0278;0.966
0.028;0.966
0.0282;0.966
0.0284;0.966
0.0286;0.966
0.0288;0.966
0.029;0.966
0.0292;0.966
0.0294;0.965
0.0296;0.965
0.0298;0.965
0.03;0.965
0.0302;0.965
0.0304;0.965
0.0306;0.965
0.0308;0.965
0.031;0.965
0.0312;0.965
0.0314;0.965
0.0316;0.965
0.0318;0.965
0.032;0.964
0.0322;0.964
0.0324;0.964
0.0326;0.964
0.0328;0.964
0.033;0.964
0.0332;0.964
0.0334;0.964
0.0336;0.964
0.0338;0.964
0.034;0.964
0.0342;0.964
0.0344;0.963
0.0346;0.963
0.0348;0.963
0.035;0.963
0.0352;0.963
0.0354;0.963
0.0356;0.963
0.0358;0.963
0.036;0.963
0.0362;0.963
0.0364;0.963
0.0366;0.962
0.0368;0.962
0.037;0.962
0.0372;0.962
0.0374;0.962
0.0376;0.962
0.0378;0.962
0.038;0.962
0.0382;0.962
0.0384;0.962
0.0386;0.962
0.0388;0.961
0.039;0.961
0.0392;0.961
0.0394;0.961
0.0396;0.961
0.0398;0.961
0.04;0.961
0.0402;0.961
0.0404;0.961
0.0406;0.961
0.0408;0.96
0.041;0.96
0.0412;0.96
0.0414;0.96
0.0416;0.96
0.0418;0.96
0.042;0.96
0.0422;0.96
0.0424;0.96
0.0426;0.959
0.0428;0.959
0.043;0.959
0.0432;0.959
0.0434;0.959
0.0436;0.959
0.0438;0.959
0.044;0.959
0.0442;0.958
0.0444;0.958
0.0446;0.958
0.0448;0.958
0.045;0.958
0.0452;0.958
0.0454;0.958
0.0456;0.958
0.0458;0.957
0.046;0.957
0.0462;0.957
0.0464;0.957
0.0466;0.957
0.0468;0.957
0.047;0.957
0.0472;0.956
0.0474;0.956
0.0476;0.956
0.0478;0.956
0.048;0.956
0.0482;0.956
0.0484;0.956
0.0486;0.955
0.0488;0.955
0.049;0.955
0.0492;0.955
0.0494;0.955
0.0496;0.955
0.0498;0.955
0.05;0.954
0.0502;0.954
0.0504;0.954
0.0506;0.954
0.0508;0.954
0.051;0.954
0.0512;0.953
0.0514;0.953
0.0516;0.953
0.0518;0.953
0.052;0.953
0.0522;0.952
0.0524;0.952
0.0526;0.952
0.0528;0.952
0.053;0.952
0.0532;0.952
0.0534;0.951
0.0536;0.951
0.0538;0.951
0.054;0.951
0.0542;0.951
0.0544;0.95
0.0546;0.95
0.0548;0.95
0.055;0.95
0.0552;0.95
0.0554;0.949
0.0556;0.949
0.0558;0.949
0.056;0.949
0.0562;0.948
0.0564;0.948
0.0566;0.948
0.0568;0.948
0.057;0.948
0.0572;0.947
0.0574;0.947
0.0576;0.947
0.0578;0.947
0.058;0.946
0.0582;0.946
0.0584;0.946
0.0586;0.946
0.0588;0.945
0.059;0.945
0.0592;0.945
0.0594;0.945
0.0596;0.944
0.0598;0.944
0.06;0.944
0.0602;0.944
0.0604;0.943
0.0606;0.943
0.0608;0.943
0.061;0.942
0.0612;0.942
0.0614;0.942
0.0616;0.941
0.0618;0.941
0.062;0.941
0.0622;0.941
0.0624;0.94
0.0626;0.94
0.0628;0.94
0.063;0.939
0.0632;0.939
0.0634;0.939
0.0636;0.938
0.0638;0.938
0.064;0.938
0.0642;0.937
0.0644;0.937
0.0646;0.936
0.0648;0.936
0.065;0.936
0.0652;0.935
0.0654;0.935
0.0656;0.935
0.0658;0.934
0.066;0.934
0.0662;0.933
0.0664;0.933
0.0666;0.933
0.0668;0.932
0.067;0.932
0.0672;0.931
0.0674;0.931
0.0676;0.93
0.0678;0.93
0.068;0.93
0.0682;0.929
0.0684;0.929
0.0686;0.928
0.0688;0.928
0.069;0.927
0.0692;0.927
0.0694;0.926
0.0696;0.926
0.0698;0.925
0.07;0.925
0.0702;0.924
0.0704;0.923
0.0706;0.923
0.0708;0.922
0.071;0.922
0.0712;0.921
0.0714;0.921
0.0716;0.92
0.0718;0.919
0.072;0.919
0.0722;0.918
0.0724;0.918
0.0726;0.917
0.0728;0.916
0.073;0.916
0.0732;0.915
0.0734;0.914
0.0736;0.914
0.0738;0.913
0.074;0.912
0.0742;0.911
0.0744;0.911
0.0746;0.91
0.0748;0.909
0.075;0.908
0.0752;0.907
0.0754;0.907
0.0756;0.906
0.0758;0.905
0.076;0.904
0.0762;0.903
0.0764;0.902
0.0766;0.901
0.0768;0.901
0.077;0.9
0.0772;0.899
0.0774;0.898
0.0776;0.897
0.0778;0.896
0.078;0.895
0.0782;0.894
0.0784;0.893
0.0786;0.891
0.0788;0.89
0.079;0.889
0.0792;0.888
0.0794;0.887
0.0796;0.886
0.0798;0.884
0.08;0.883
0.0802;0.882
0.0804;0.881
0.0806;0.879
0.0808;0.878
0.081;0.876
0.0812;0.875
0.0814;0.874
0.0816;0.872
0.0818;0.871
0.082;0.869
0.0822;0.868
0.0824;0.866
0.0826;0.864
0.0828;0.863
0.083;0.861
0.0832;0.859
0.0834;0.857
0.0836;0.855
0.0838;0.854
0.084;0.852
0.0842;0.85
0.0844;0.848
0.0846;0.846
0.0848;0.843
0.085;0.841
0.0852;0.839
0.0854;0.837
0.0856;0.834
0.0858;0.832
0.086;0.829
0.0862;0.827
0.0864;0.824
0.0866;0.822
0.0868;0.819
0.087;0.816
0.0872;0.813
0.0874;0.81
0.0876;0.807
0.0878;0.804
0.088;0.801
0.0882;0.798
0.0884;0.794
0.0886;0.791
0.0888;0.787
0.089;0.783
0.0892;0.78
0.0894;0.776
0.0896;0.772
0.0898;0.768
0.09;0.763
0.0902;0.759
0.0904;0.754
0.0906;0.75
0.0908;0.745
0.091;0.74
0.0912;0.735
0.0914;0.73
0.0916;0.724
0.0918;0.719
0.092;0.713
0.0922;0.707
0.0924;0.701
0.0926;0.694
0.0928;0.688
0.093;0.681
0.0932;0.674
0.0934;0.667
0.0936;0.659
0.0938;0.651
0.094;0.643
0.0942;0.635
0.0944;0.626
0.0946;0.618
0.0948;0.608
0.095;0.599
0.0952;0.589
0.0954;0.579
0.0956;0.569
0.0958;0.558
0.096;0.547
0.0962;0.535
0.0964;0.523
0.0966;0.511
0.0968;0.498
0.097;0.485
0.0972;0.472
0.0974;0.458
0.0976;0.443
0.0978;0.429
0.098;0.414
0.0982;0.398
0.0984;0.382
0.0986;0.366
0.0988;0.349
0.099;0.332
0.0992;0.315
0.0994;0.297
0.0996;0.28
0.0998;0.262
0.1;0.244
